#energy geo_1 
500 3.98077e-07 
500.488 3.96399e-07 
500.977 3.94886e-07 
501.465 3.93544e-07 
501.953 3.92387e-07 
502.441 3.91443e-07 
502.93 3.9075e-07 
503.418 3.90361e-07 
503.906 3.90348e-07 
504.395 3.90804e-07 
504.883 3.91851e-07 
505.371 3.93632e-07 
505.859 3.96319e-07 
506.348 4.00098e-07 
506.836 4.05172e-07 
507.324 4.1175e-07 
507.812 4.2007e-07 
508.301 4.30402e-07 
508.789 4.4308e-07 
509.277 4.58528e-07 
509.766 4.77293e-07 
510.254 5.00071e-07 
510.742 5.27747e-07 
511.23 5.61434e-07 
511.719 6.0247e-07 
512.207 6.52401e-07 
512.695 7.12809e-07 
513.184 7.84922e-07 
513.672 8.68769e-07 
514.16 9.61707e-07 
514.648 1.05649e-06 
515.137 1.14003e-06 
515.625 1.19522e-06 
516.113 1.20759e-06 
516.602 1.17349e-06 
517.09 1.10245e-06 
517.578 1.01122e-06 
518.066 9.15517e-07 
518.555 8.2568e-07 
519.043 7.46562e-07 
519.531 6.79333e-07 
520.02 6.23266e-07 
520.508 5.76886e-07 
520.996 5.38582e-07 
521.484 5.06882e-07 
521.973 4.80529e-07 
522.461 4.58497e-07 
522.949 4.39963e-07 
523.438 4.24272e-07 
523.926 4.10902e-07 
524.414 3.99439e-07 
524.902 3.8955e-07 
525.391 3.80971e-07 
525.879 3.73489e-07 
526.367 3.66929e-07 
526.855 3.61151e-07 
527.344 3.56038e-07 
527.832 3.51496e-07 
528.32 3.47443e-07 
528.809 3.43813e-07 
529.297 3.40552e-07 
529.785 3.37612e-07 
530.273 3.34954e-07 
530.762 3.32543e-07 
531.25 3.3035e-07 
531.738 3.28351e-07 
532.227 3.26524e-07 
532.715 3.24851e-07 
533.203 3.23314e-07 
533.691 3.21901e-07 
534.18 3.20599e-07 
534.668 3.19397e-07 
535.156 3.18285e-07 
535.645 3.17256e-07 
536.133 3.163e-07 
536.621 3.15413e-07 
537.109 3.14588e-07 
537.598 3.13819e-07 
538.086 3.13102e-07 
538.574 3.12433e-07 
539.062 3.11808e-07 
539.551 3.11223e-07 
540.039 3.10675e-07 
540.527 3.10162e-07 
541.016 3.09681e-07 
541.504 3.09229e-07 
541.992 3.08805e-07 
542.48 3.08406e-07 
542.969 3.08031e-07 
543.457 3.07677e-07 
543.945 3.07345e-07 
544.434 3.07032e-07 
544.922 3.06737e-07 
545.41 3.06459e-07 
545.898 3.06197e-07 
546.387 3.05949e-07 
546.875 3.05716e-07 
547.363 3.05495e-07 
547.852 3.05287e-07 
548.34 3.05091e-07 
548.828 3.04905e-07 
549.316 3.0473e-07 
549.805 3.04565e-07 
550.293 3.04409e-07 
550.781 3.04262e-07 
551.27 3.04122e-07 
551.758 3.03991e-07 
552.246 3.03868e-07 
552.734 3.03751e-07 
553.223 3.03641e-07 
553.711 3.03537e-07 
554.199 3.0344e-07 
554.688 3.03348e-07 
555.176 3.03262e-07 
555.664 3.03181e-07 
556.152 3.03105e-07 
556.641 3.03034e-07 
557.129 3.02967e-07 
557.617 3.02905e-07 
558.105 3.02847e-07 
558.594 3.02793e-07 
559.082 3.02743e-07 
559.57 3.02697e-07 
560.059 3.02654e-07 
560.547 3.02614e-07 
561.035 3.02578e-07 
561.523 3.02545e-07 
562.012 3.02515e-07 
562.5 3.02488e-07 
562.988 3.02464e-07 
563.477 3.02442e-07 
563.965 3.02423e-07 
564.453 3.02407e-07 
564.941 3.02392e-07 
565.43 3.02381e-07 
565.918 3.02371e-07 
566.406 3.02364e-07 
566.895 3.02359e-07 
567.383 3.02356e-07 
567.871 3.02354e-07 
568.359 3.02355e-07 
568.848 3.02358e-07 
569.336 3.02362e-07 
569.824 3.02368e-07 
570.312 3.02375e-07 
570.801 3.02385e-07 
571.289 3.02395e-07 
571.777 3.02408e-07 
572.266 3.02421e-07 
572.754 3.02436e-07 
573.242 3.02453e-07 
573.73 3.0247e-07 
574.219 3.02489e-07 
574.707 3.0251e-07 
575.195 3.02531e-07 
575.684 3.02553e-07 
576.172 3.02577e-07 
576.66 3.02602e-07 
577.148 3.02627e-07 
577.637 3.02654e-07 
578.125 3.02682e-07 
578.613 3.0271e-07 
579.102 3.0274e-07 
579.59 3.0277e-07 
580.078 3.02801e-07 
580.566 3.02834e-07 
581.055 3.02866e-07 
581.543 3.029e-07 
582.031 3.02934e-07 
582.52 3.0297e-07 
583.008 3.03006e-07 
583.496 3.03042e-07 
583.984 3.0308e-07 
584.473 3.03118e-07 
584.961 3.03156e-07 
585.449 3.03196e-07 
585.938 3.03236e-07 
586.426 3.03276e-07 
586.914 3.03317e-07 
587.402 3.03359e-07 
587.891 3.03402e-07 
588.379 3.03445e-07 
588.867 3.03489e-07 
589.355 3.03533e-07 
589.844 3.03578e-07 
590.332 3.03623e-07 
590.82 3.03669e-07 
591.309 3.03716e-07 
591.797 3.03763e-07 
592.285 3.0381e-07 
592.773 3.03859e-07 
593.262 3.03907e-07 
593.75 3.03957e-07 
594.238 3.04006e-07 
594.727 3.04056e-07 
595.215 3.04107e-07 
595.703 3.04159e-07 
596.191 3.0421e-07 
596.68 3.04262e-07 
597.168 3.04315e-07 
597.656 3.04368e-07 
598.145 3.04422e-07 
598.633 3.04476e-07 
599.121 3.0453e-07 
599.609 3.04585e-07 
600.098 3.04641e-07 
600.586 3.04696e-07 
601.074 3.04752e-07 
601.562 3.04809e-07 
602.051 3.04866e-07 
602.539 3.04923e-07 
603.027 3.0498e-07 
603.516 3.05038e-07 
604.004 3.05096e-07 
604.492 3.05155e-07 
604.98 3.05214e-07 
605.469 3.05273e-07 
605.957 3.05332e-07 
606.445 3.05392e-07 
606.934 3.05452e-07 
607.422 3.05512e-07 
607.91 3.05573e-07 
608.398 3.05634e-07 
608.887 3.05695e-07 
609.375 3.05756e-07 
609.863 3.05818e-07 
610.352 3.0588e-07 
610.84 3.05942e-07 
611.328 3.06004e-07 
611.816 3.06067e-07 
612.305 3.0613e-07 
612.793 3.06193e-07 
613.281 3.06257e-07 
613.77 3.0632e-07 
614.258 3.06384e-07 
614.746 3.06448e-07 
615.234 3.06513e-07 
615.723 3.06577e-07 
616.211 3.06642e-07 
616.699 3.06708e-07 
617.188 3.06773e-07 
617.676 3.06839e-07 
618.164 3.06905e-07 
618.652 3.06971e-07 
619.141 3.07038e-07 
619.629 3.07105e-07 
620.117 3.07172e-07 
620.605 3.0724e-07 
621.094 3.07307e-07 
621.582 3.07375e-07 
622.07 3.07444e-07 
622.559 3.07512e-07 
623.047 3.07581e-07 
623.535 3.0765e-07 
624.023 3.0772e-07 
624.512 3.07789e-07 
625 3.07859e-07 
625.488 3.0793e-07 
625.977 3.08e-07 
626.465 3.08071e-07 
626.953 3.08142e-07 
627.441 3.08213e-07 
627.93 3.08284e-07 
628.418 3.08356e-07 
628.906 3.08428e-07 
629.395 3.08499e-07 
629.883 3.08572e-07 
630.371 3.08644e-07 
630.859 3.08717e-07 
631.348 3.0879e-07 
631.836 3.08863e-07 
632.324 3.08936e-07 
632.812 3.09009e-07 
633.301 3.09083e-07 
633.789 3.09157e-07 
634.277 3.09231e-07 
634.766 3.09304e-07 
635.254 3.09379e-07 
635.742 3.09453e-07 
636.23 3.09528e-07 
636.719 3.09602e-07 
637.207 3.09677e-07 
637.695 3.09752e-07 
638.184 3.09828e-07 
638.672 3.09903e-07 
639.16 3.09979e-07 
639.648 3.10055e-07 
640.137 3.10131e-07 
640.625 3.10207e-07 
641.113 3.10283e-07 
641.602 3.1036e-07 
642.09 3.10437e-07 
642.578 3.10514e-07 
643.066 3.10591e-07 
643.555 3.10669e-07 
644.043 3.10747e-07 
644.531 3.10825e-07 
645.02 3.10903e-07 
645.508 3.10982e-07 
645.996 3.1106e-07 
646.484 3.1114e-07 
646.973 3.11219e-07 
647.461 3.11298e-07 
647.949 3.11378e-07 
648.438 3.11458e-07 
648.926 3.11538e-07 
649.414 3.11619e-07 
649.902 3.11699e-07 
650.391 3.11781e-07 
650.879 3.11862e-07 
651.367 3.11943e-07 
651.855 3.12025e-07 
652.344 3.12106e-07 
652.832 3.12188e-07 
653.32 3.12271e-07 
653.809 3.12353e-07 
654.297 3.12436e-07 
654.785 3.12518e-07 
655.273 3.12601e-07 
655.762 3.12684e-07 
656.25 3.12768e-07 
656.738 3.12851e-07 
657.227 3.12935e-07 
657.715 3.13018e-07 
658.203 3.13102e-07 
658.691 3.13186e-07 
659.18 3.13271e-07 
659.668 3.13355e-07 
660.156 3.13439e-07 
660.645 3.13524e-07 
661.133 3.13609e-07 
661.621 3.13693e-07 
662.109 3.13779e-07 
662.598 3.13864e-07 
663.086 3.13949e-07 
663.574 3.14035e-07 
664.062 3.14121e-07 
664.551 3.14207e-07 
665.039 3.14293e-07 
665.527 3.1438e-07 
666.016 3.14466e-07 
666.504 3.14553e-07 
666.992 3.1464e-07 
667.48 3.14728e-07 
667.969 3.14815e-07 
668.457 3.14903e-07 
668.945 3.14991e-07 
669.434 3.1508e-07 
669.922 3.15168e-07 
670.41 3.15257e-07 
670.898 3.15347e-07 
671.387 3.15436e-07 
671.875 3.15526e-07 
672.363 3.15616e-07 
672.852 3.15706e-07 
673.34 3.15797e-07 
673.828 3.15887e-07 
674.316 3.15979e-07 
674.805 3.1607e-07 
675.293 3.16161e-07 
675.781 3.16253e-07 
676.27 3.16345e-07 
676.758 3.16437e-07 
677.246 3.1653e-07 
677.734 3.16622e-07 
678.223 3.16715e-07 
678.711 3.16808e-07 
679.199 3.16901e-07 
679.688 3.16995e-07 
680.176 3.17088e-07 
680.664 3.17182e-07 
681.152 3.17276e-07 
681.641 3.1737e-07 
682.129 3.17464e-07 
682.617 3.17559e-07 
683.105 3.17653e-07 
683.594 3.17748e-07 
684.082 3.17843e-07 
684.57 3.17938e-07 
685.059 3.18033e-07 
685.547 3.18128e-07 
686.035 3.18224e-07 
686.523 3.1832e-07 
687.012 3.18416e-07 
687.5 3.18513e-07 
687.988 3.18609e-07 
688.477 3.18706e-07 
688.965 3.18803e-07 
689.453 3.189e-07 
689.941 3.18998e-07 
690.43 3.19096e-07 
690.918 3.19194e-07 
691.406 3.19293e-07 
691.895 3.19391e-07 
692.383 3.1949e-07 
692.871 3.1959e-07 
693.359 3.19689e-07 
693.848 3.19789e-07 
694.336 3.1989e-07 
694.824 3.1999e-07 
695.312 3.20091e-07 
695.801 3.20192e-07 
696.289 3.20294e-07 
696.777 3.20395e-07 
697.266 3.20497e-07 
697.754 3.206e-07 
698.242 3.20702e-07 
698.73 3.20805e-07 
699.219 3.20908e-07 
699.707 3.21011e-07 
700.195 3.21115e-07 
700.684 3.21218e-07 
701.172 3.21322e-07 
701.66 3.21426e-07 
702.148 3.21531e-07 
702.637 3.21635e-07 
703.125 3.2174e-07 
703.613 3.21845e-07 
704.102 3.2195e-07 
704.59 3.22055e-07 
705.078 3.22161e-07 
705.566 3.22266e-07 
706.055 3.22372e-07 
706.543 3.22479e-07 
707.031 3.22585e-07 
707.52 3.22692e-07 
708.008 3.22798e-07 
708.496 3.22906e-07 
708.984 3.23013e-07 
709.473 3.23121e-07 
709.961 3.23228e-07 
710.449 3.23337e-07 
710.938 3.23446e-07 
711.426 3.23555e-07 
711.914 3.23664e-07 
712.402 3.23773e-07 
712.891 3.23883e-07 
713.379 3.23994e-07 
713.867 3.24105e-07 
714.355 3.24216e-07 
714.844 3.24327e-07 
715.332 3.24439e-07 
715.82 3.24551e-07 
716.309 3.24664e-07 
716.797 3.24777e-07 
717.285 3.2489e-07 
717.773 3.25003e-07 
718.262 3.25117e-07 
718.75 3.25231e-07 
719.238 3.25346e-07 
719.727 3.25461e-07 
720.215 3.25576e-07 
720.703 3.25691e-07 
721.191 3.25807e-07 
721.68 3.25923e-07 
722.168 3.26039e-07 
722.656 3.26155e-07 
723.145 3.26272e-07 
723.633 3.26388e-07 
724.121 3.26505e-07 
724.609 3.26623e-07 
725.098 3.2674e-07 
725.586 3.26858e-07 
726.074 3.26976e-07 
726.562 3.27094e-07 
727.051 3.27212e-07 
727.539 3.27331e-07 
728.027 3.2745e-07 
728.516 3.27569e-07 
729.004 3.27689e-07 
729.492 3.27809e-07 
729.98 3.27929e-07 
730.469 3.2805e-07 
730.957 3.28171e-07 
731.445 3.28293e-07 
731.934 3.28415e-07 
732.422 3.28537e-07 
732.91 3.2866e-07 
733.398 3.28783e-07 
733.887 3.28907e-07 
734.375 3.29031e-07 
734.863 3.29155e-07 
735.352 3.2928e-07 
735.84 3.29406e-07 
736.328 3.29532e-07 
736.816 3.29658e-07 
737.305 3.29785e-07 
737.793 3.29912e-07 
738.281 3.3004e-07 
738.77 3.30168e-07 
739.258 3.30296e-07 
739.746 3.30425e-07 
740.234 3.30554e-07 
740.723 3.30683e-07 
741.211 3.30813e-07 
741.699 3.30943e-07 
742.188 3.31073e-07 
742.676 3.31204e-07 
743.164 3.31335e-07 
743.652 3.31466e-07 
744.141 3.31597e-07 
744.629 3.31729e-07 
745.117 3.31861e-07 
745.605 3.31994e-07 
746.094 3.32127e-07 
746.582 3.3226e-07 
747.07 3.32393e-07 
747.559 3.32527e-07 
748.047 3.32661e-07 
748.535 3.32796e-07 
749.023 3.32931e-07 
749.512 3.33067e-07 
750 3.33203e-07 
750.488 3.3334e-07 
750.977 3.33477e-07 
751.465 3.33615e-07 
751.953 3.33753e-07 
752.441 3.33892e-07 
752.93 3.34031e-07 
753.418 3.34171e-07 
753.906 3.34311e-07 
754.395 3.34452e-07 
754.883 3.34594e-07 
755.371 3.34736e-07 
755.859 3.34878e-07 
756.348 3.35021e-07 
756.836 3.35165e-07 
757.324 3.35309e-07 
757.812 3.35454e-07 
758.301 3.35598e-07 
758.789 3.35744e-07 
759.277 3.35889e-07 
759.766 3.36036e-07 
760.254 3.36182e-07 
760.742 3.36329e-07 
761.23 3.36477e-07 
761.719 3.36625e-07 
762.207 3.36773e-07 
762.695 3.36921e-07 
763.184 3.37071e-07 
763.672 3.3722e-07 
764.16 3.3737e-07 
764.648 3.37521e-07 
765.137 3.37672e-07 
765.625 3.37824e-07 
766.113 3.37976e-07 
766.602 3.38129e-07 
767.09 3.38283e-07 
767.578 3.38437e-07 
768.066 3.38592e-07 
768.555 3.38747e-07 
769.043 3.38904e-07 
769.531 3.39061e-07 
770.02 3.39218e-07 
770.508 3.39377e-07 
770.996 3.39536e-07 
771.484 3.39696e-07 
771.973 3.39856e-07 
772.461 3.40017e-07 
772.949 3.40178e-07 
773.438 3.4034e-07 
773.926 3.40503e-07 
774.414 3.40666e-07 
774.902 3.40829e-07 
775.391 3.40993e-07 
775.879 3.41157e-07 
776.367 3.41322e-07 
776.855 3.41487e-07 
777.344 3.41652e-07 
777.832 3.41817e-07 
778.32 3.41983e-07 
778.809 3.42149e-07 
779.297 3.42316e-07 
779.785 3.42483e-07 
780.273 3.4265e-07 
780.762 3.42818e-07 
781.25 3.42986e-07 
781.738 3.43155e-07 
782.227 3.43325e-07 
782.715 3.43495e-07 
783.203 3.43666e-07 
783.691 3.43838e-07 
784.18 3.44011e-07 
784.668 3.44185e-07 
785.156 3.4436e-07 
785.645 3.44537e-07 
786.133 3.44714e-07 
786.621 3.44893e-07 
787.109 3.45073e-07 
787.598 3.45254e-07 
788.086 3.45436e-07 
788.574 3.4562e-07 
789.062 3.45806e-07 
789.551 3.45992e-07 
790.039 3.4618e-07 
790.527 3.46369e-07 
791.016 3.4656e-07 
791.504 3.46752e-07 
791.992 3.46945e-07 
792.48 3.47139e-07 
792.969 3.47334e-07 
793.457 3.47531e-07 
793.945 3.47729e-07 
794.434 3.47928e-07 
794.922 3.48128e-07 
795.41 3.48329e-07 
795.898 3.48531e-07 
796.387 3.48735e-07 
796.875 3.48939e-07 
797.363 3.49144e-07 
797.852 3.4935e-07 
798.34 3.49557e-07 
798.828 3.49764e-07 
799.316 3.49972e-07 
799.805 3.50182e-07 
800.293 3.50391e-07 
800.781 3.50601e-07 
801.27 3.50812e-07 
801.758 3.51022e-07 
802.246 3.51233e-07 
802.734 3.51443e-07 
803.223 3.51654e-07 
803.711 3.51864e-07 
804.199 3.52075e-07 
804.688 3.52284e-07 
805.176 3.52494e-07 
805.664 3.52703e-07 
806.152 3.52911e-07 
806.641 3.53119e-07 
807.129 3.53326e-07 
807.617 3.53533e-07 
808.105 3.5374e-07 
808.594 3.53947e-07 
809.082 3.54154e-07 
809.57 3.54361e-07 
810.059 3.54568e-07 
810.547 3.54776e-07 
811.035 3.54986e-07 
811.523 3.55196e-07 
812.012 3.55409e-07 
812.5 3.55623e-07 
812.988 3.55839e-07 
813.477 3.56058e-07 
813.965 3.5628e-07 
814.453 3.56505e-07 
814.941 3.56733e-07 
815.43 3.56966e-07 
815.918 3.57202e-07 
816.406 3.57443e-07 
816.895 3.57687e-07 
817.383 3.57937e-07 
817.871 3.58191e-07 
818.359 3.5845e-07 
818.848 3.58714e-07 
819.336 3.58982e-07 
819.824 3.59256e-07 
820.312 3.59533e-07 
820.801 3.59816e-07 
821.289 3.60102e-07 
821.777 3.60393e-07 
822.266 3.60687e-07 
822.754 3.60985e-07 
823.242 3.61285e-07 
823.73 3.61587e-07 
824.219 3.61892e-07 
824.707 3.62197e-07 
825.195 3.62503e-07 
825.684 3.62808e-07 
826.172 3.63113e-07 
826.66 3.63416e-07 
827.148 3.63718e-07 
827.637 3.64017e-07 
828.125 3.64314e-07 
828.613 3.64607e-07 
829.102 3.64898e-07 
829.59 3.65186e-07 
830.078 3.65471e-07 
830.566 3.65754e-07 
831.055 3.66035e-07 
831.543 3.66315e-07 
832.031 3.66595e-07 
832.52 3.66876e-07 
833.008 3.67159e-07 
833.496 3.67445e-07 
833.984 3.67735e-07 
834.473 3.68031e-07 
834.961 3.68333e-07 
835.449 3.68642e-07 
835.938 3.6896e-07 
836.426 3.69286e-07 
836.914 3.69621e-07 
837.402 3.69965e-07 
837.891 3.70318e-07 
838.379 3.7068e-07 
838.867 3.7105e-07 
839.355 3.71427e-07 
839.844 3.7181e-07 
840.332 3.72199e-07 
840.82 3.72593e-07 
841.309 3.72991e-07 
841.797 3.73393e-07 
842.285 3.73797e-07 
842.773 3.74204e-07 
843.262 3.74615e-07 
843.75 3.7503e-07 
844.238 3.75452e-07 
844.727 3.75879e-07 
845.215 3.76312e-07 
845.703 3.76747e-07 
846.191 3.77186e-07 
846.68 3.77636e-07 
847.168 3.781e-07 
847.656 3.78572e-07 
848.145 3.7905e-07 
848.633 3.79538e-07 
849.121 3.80036e-07 
849.609 3.8054e-07 
850.098 3.81056e-07 
850.586 3.81583e-07 
851.074 3.82116e-07 
851.562 3.82659e-07 
852.051 3.83212e-07 
852.539 3.8377e-07 
853.027 3.84329e-07 
853.516 3.84894e-07 
854.004 3.85465e-07 
854.492 3.86034e-07 
854.98 3.866e-07 
855.469 3.87169e-07 
855.957 3.87744e-07 
856.445 3.88317e-07 
856.934 3.88884e-07 
857.422 3.89449e-07 
857.91 3.90017e-07 
858.398 3.90583e-07 
858.887 3.91138e-07 
859.375 3.91685e-07 
859.863 3.92233e-07 
860.352 3.92787e-07 
860.84 3.93343e-07 
861.328 3.93895e-07 
861.816 3.94445e-07 
862.305 3.95002e-07 
862.793 3.95569e-07 
863.281 3.9614e-07 
863.77 3.96707e-07 
864.258 3.97273e-07 
864.746 3.97849e-07 
865.234 3.98437e-07 
865.723 3.99031e-07 
866.211 3.99624e-07 
866.699 4.00216e-07 
867.188 4.00817e-07 
867.676 4.01435e-07 
868.164 4.02068e-07 
868.652 4.02705e-07 
869.141 4.03343e-07 
869.629 4.03989e-07 
870.117 4.04651e-07 
870.605 4.0533e-07 
871.094 4.06018e-07 
871.582 4.06707e-07 
872.07 4.074e-07 
872.559 4.08105e-07 
873.047 4.0883e-07 
873.535 4.09572e-07 
874.023 4.10321e-07 
874.512 4.11071e-07 
875 4.11829e-07 
875.488 4.126e-07 
875.977 4.13387e-07 
876.465 4.14183e-07 
876.953 4.14982e-07 
877.441 4.15783e-07 
877.93 4.16598e-07 
878.418 4.17435e-07 
878.906 4.18295e-07 
879.395 4.19172e-07 
879.883 4.20063e-07 
880.371 4.20972e-07 
880.859 4.21907e-07 
881.348 4.22871e-07 
881.836 4.23855e-07 
882.324 4.24845e-07 
882.812 4.25837e-07 
883.301 4.26836e-07 
883.789 4.27854e-07 
884.277 4.28896e-07 
884.766 4.29962e-07 
885.254 4.3105e-07 
885.742 4.32162e-07 
886.23 4.33308e-07 
886.719 4.34495e-07 
887.207 4.35713e-07 
887.695 4.36948e-07 
888.184 4.38188e-07 
888.672 4.39432e-07 
889.16 4.40684e-07 
889.648 4.41948e-07 
890.137 4.43215e-07 
890.625 4.44472e-07 
891.113 4.45715e-07 
891.602 4.46942e-07 
892.09 4.48149e-07 
892.578 4.49323e-07 
893.066 4.50442e-07 
893.555 4.51483e-07 
894.043 4.52432e-07 
894.531 4.53279e-07 
895.02 4.54022e-07 
895.508 4.54674e-07 
895.996 4.55286e-07 
896.484 4.55936e-07 
896.973 4.56699e-07 
897.461 4.57586e-07 
897.949 4.58555e-07 
898.438 4.59554e-07 
898.926 4.60554e-07 
899.414 4.61559e-07 
899.902 4.62581e-07 
900.391 4.63605e-07 
900.879 4.64602e-07 
901.367 4.65563e-07 
901.855 4.66513e-07 
902.344 4.67496e-07 
902.832 4.68546e-07 
903.32 4.69686e-07 
903.809 4.70947e-07 
904.297 4.72385e-07 
904.785 4.74034e-07 
905.273 4.75896e-07 
905.762 4.77953e-07 
906.25 4.80185e-07 
906.738 4.82587e-07 
907.227 4.85173e-07 
907.715 4.87951e-07 
908.203 4.90943e-07 
908.691 4.94194e-07 
909.18 4.97728e-07 
909.668 5.01544e-07 
910.156 5.05648e-07 
910.645 5.1007e-07 
911.133 5.14851e-07 
911.621 5.20012e-07 
912.109 5.25497e-07 
912.598 5.31227e-07 
913.086 5.37158e-07 
913.574 5.43271e-07 
914.062 5.49572e-07 
914.551 5.56077e-07 
915.039 5.62756e-07 
915.527 5.69512e-07 
916.016 5.76188e-07 
916.504 5.82621e-07 
916.992 5.88628e-07 
917.48 5.9397e-07 
917.969 5.98462e-07 
918.457 6.0196e-07 
918.945 6.04313e-07 
919.434 6.05401e-07 
919.922 6.05198e-07 
920.41 6.03758e-07 
920.898 6.0116e-07 
921.387 5.97459e-07 
921.875 5.92717e-07 
922.363 5.87044e-07 
922.852 5.80445e-07 
923.34 5.72784e-07 
923.828 5.64087e-07 
924.316 5.54592e-07 
924.805 5.44574e-07 
925.293 5.3429e-07 
925.781 5.2413e-07 
926.27 5.1473e-07 
926.758 5.0664e-07 
927.246 4.9999e-07 
927.734 4.9435e-07 
928.223 4.88822e-07 
928.711 4.8264e-07 
929.199 4.75709e-07 
929.688 4.68589e-07 
930.176 4.61668e-07 
930.664 4.5459e-07 
931.152 4.46783e-07 
931.641 4.38298e-07 
932.129 4.29667e-07 
932.617 4.20875e-07 
933.105 4.12122e-07 
933.594 4.04837e-07 
934.082 4.00686e-07 
934.57 4.00296e-07 
935.059 4.03172e-07 
935.547 4.08639e-07 
936.035 4.16453e-07 
936.523 4.26758e-07 
937.012 4.40002e-07 
937.5 4.56969e-07 
937.988 4.78889e-07 
938.477 5.07648e-07 
938.965 5.46201e-07 
939.453 5.99344e-07 
939.941 6.75231e-07 
940.43 7.88551e-07 
940.918 9.67802e-07 
941.406 1.27339e-06 
941.895 1.84736e-06 
942.383 3.05093e-06 
942.871 5.60058e-06 
943.359 8.31628e-06 
943.848 7.37586e-06 
944.336 4.32334e-06 
944.824 2.43164e-06 
945.312 1.55833e-06 
945.801 1.12281e-06 
946.289 8.80802e-07 
946.777 7.33962e-07 
947.266 6.38628e-07 
947.754 5.73402e-07 
948.242 5.26885e-07 
948.73 4.9258e-07 
949.219 4.66576e-07 
949.707 4.46407e-07 
950.195 4.30456e-07 
950.684 4.17629e-07 
951.172 4.07165e-07 
951.66 3.98521e-07 
952.148 3.91301e-07 
952.637 3.85212e-07 
953.125 3.80032e-07 
953.613 3.7559e-07 
954.102 3.71754e-07 
954.59 3.68422e-07 
955.078 3.6551e-07 
955.566 3.62952e-07 
956.055 3.60695e-07 
956.543 3.58695e-07 
957.031 3.56915e-07 
957.52 3.55326e-07 
958.008 3.53903e-07 
958.496 3.52623e-07 
958.984 3.51471e-07 
959.473 3.50431e-07 
959.961 3.49489e-07 
960.449 3.48634e-07 
960.938 3.47857e-07 
961.426 3.4715e-07 
961.914 3.46506e-07 
962.402 3.45918e-07 
962.891 3.4538e-07 
963.379 3.44888e-07 
963.867 3.44438e-07 
964.355 3.44025e-07 
964.844 3.43647e-07 
965.332 3.433e-07 
965.82 3.42981e-07 
966.309 3.42689e-07 
966.797 3.42421e-07 
967.285 3.42175e-07 
967.773 3.41949e-07 
968.262 3.41743e-07 
968.75 3.41554e-07 
969.238 3.41381e-07 
969.727 3.41223e-07 
