#energy geo_1 
500 3.14436e-07 
500.488 3.1448e-07 
500.977 3.14524e-07 
501.465 3.14569e-07 
501.953 3.14613e-07 
502.441 3.14657e-07 
502.93 3.14701e-07 
503.418 3.14746e-07 
503.906 3.14791e-07 
504.395 3.14835e-07 
504.883 3.1488e-07 
505.371 3.14925e-07 
505.859 3.14969e-07 
506.348 3.15014e-07 
506.836 3.15059e-07 
507.324 3.15104e-07 
507.812 3.15149e-07 
508.301 3.15194e-07 
508.789 3.15239e-07 
509.277 3.15285e-07 
509.766 3.1533e-07 
510.254 3.15375e-07 
510.742 3.1542e-07 
511.23 3.15466e-07 
511.719 3.15511e-07 
512.207 3.15557e-07 
512.695 3.15602e-07 
513.184 3.15647e-07 
513.672 3.15693e-07 
514.16 3.15738e-07 
514.648 3.15784e-07 
515.137 3.15829e-07 
515.625 3.15875e-07 
516.113 3.1592e-07 
516.602 3.15966e-07 
517.09 3.16011e-07 
517.578 3.16057e-07 
518.066 3.16102e-07 
518.555 3.16148e-07 
519.043 3.16194e-07 
519.531 3.16239e-07 
520.02 3.16285e-07 
520.508 3.1633e-07 
520.996 3.16376e-07 
521.484 3.16421e-07 
521.973 3.16467e-07 
522.461 3.16512e-07 
522.949 3.16558e-07 
523.438 3.16603e-07 
523.926 3.16649e-07 
524.414 3.16695e-07 
524.902 3.1674e-07 
525.391 3.16786e-07 
525.879 3.16832e-07 
526.367 3.16877e-07 
526.855 3.16923e-07 
527.344 3.16969e-07 
527.832 3.17015e-07 
528.32 3.17061e-07 
528.809 3.17107e-07 
529.297 3.17153e-07 
529.785 3.17199e-07 
530.273 3.17245e-07 
530.762 3.17291e-07 
531.25 3.17337e-07 
531.738 3.17384e-07 
532.227 3.1743e-07 
532.715 3.17476e-07 
533.203 3.17523e-07 
533.691 3.17569e-07 
534.18 3.17616e-07 
534.668 3.17663e-07 
535.156 3.1771e-07 
535.645 3.17757e-07 
536.133 3.17803e-07 
536.621 3.1785e-07 
537.109 3.17897e-07 
537.598 3.17944e-07 
538.086 3.17991e-07 
538.574 3.18039e-07 
539.062 3.18086e-07 
539.551 3.18133e-07 
540.039 3.1818e-07 
540.527 3.18228e-07 
541.016 3.18275e-07 
541.504 3.18323e-07 
541.992 3.1837e-07 
542.48 3.18418e-07 
542.969 3.18465e-07 
543.457 3.18513e-07 
543.945 3.1856e-07 
544.434 3.18608e-07 
544.922 3.18656e-07 
545.41 3.18703e-07 
545.898 3.18751e-07 
546.387 3.18799e-07 
546.875 3.18846e-07 
547.363 3.18894e-07 
547.852 3.18942e-07 
548.34 3.1899e-07 
548.828 3.19038e-07 
549.316 3.19085e-07 
549.805 3.19133e-07 
550.293 3.19181e-07 
550.781 3.19229e-07 
551.27 3.19277e-07 
551.758 3.19324e-07 
552.246 3.19372e-07 
552.734 3.1942e-07 
553.223 3.19468e-07 
553.711 3.19516e-07 
554.199 3.19564e-07 
554.688 3.19612e-07 
555.176 3.1966e-07 
555.664 3.19708e-07 
556.152 3.19757e-07 
556.641 3.19805e-07 
557.129 3.19853e-07 
557.617 3.19901e-07 
558.105 3.19949e-07 
558.594 3.19998e-07 
559.082 3.20046e-07 
559.57 3.20094e-07 
560.059 3.20143e-07 
560.547 3.20191e-07 
561.035 3.2024e-07 
561.523 3.20289e-07 
562.012 3.20337e-07 
562.5 3.20386e-07 
562.988 3.20435e-07 
563.477 3.20484e-07 
563.965 3.20532e-07 
564.453 3.20581e-07 
564.941 3.2063e-07 
565.43 3.20679e-07 
565.918 3.20729e-07 
566.406 3.20778e-07 
566.895 3.20827e-07 
567.383 3.20876e-07 
567.871 3.20926e-07 
568.359 3.20975e-07 
568.848 3.21025e-07 
569.336 3.21074e-07 
569.824 3.21124e-07 
570.312 3.21173e-07 
570.801 3.21223e-07 
571.289 3.21273e-07 
571.777 3.21322e-07 
572.266 3.21372e-07 
572.754 3.21422e-07 
573.242 3.21472e-07 
573.73 3.21522e-07 
574.219 3.21572e-07 
574.707 3.21622e-07 
575.195 3.21672e-07 
575.684 3.21722e-07 
576.172 3.21773e-07 
576.66 3.21823e-07 
577.148 3.21873e-07 
577.637 3.21923e-07 
578.125 3.21974e-07 
578.613 3.22024e-07 
579.102 3.22075e-07 
579.59 3.22125e-07 
580.078 3.22176e-07 
580.566 3.22226e-07 
581.055 3.22277e-07 
581.543 3.22327e-07 
582.031 3.22378e-07 
582.52 3.22428e-07 
583.008 3.22479e-07 
583.496 3.2253e-07 
583.984 3.2258e-07 
584.473 3.22631e-07 
584.961 3.22682e-07 
585.449 3.22733e-07 
585.938 3.22784e-07 
586.426 3.22834e-07 
586.914 3.22885e-07 
587.402 3.22936e-07 
587.891 3.22987e-07 
588.379 3.23038e-07 
588.867 3.2309e-07 
589.355 3.23141e-07 
589.844 3.23192e-07 
590.332 3.23243e-07 
590.82 3.23294e-07 
591.309 3.23346e-07 
591.797 3.23397e-07 
592.285 3.23448e-07 
592.773 3.23499e-07 
593.262 3.23551e-07 
593.75 3.23602e-07 
594.238 3.23654e-07 
594.727 3.23706e-07 
595.215 3.23757e-07 
595.703 3.23809e-07 
596.191 3.23861e-07 
596.68 3.23913e-07 
597.168 3.23964e-07 
597.656 3.24016e-07 
598.145 3.24068e-07 
598.633 3.2412e-07 
599.121 3.24173e-07 
599.609 3.24225e-07 
600.098 3.24277e-07 
600.586 3.24329e-07 
601.074 3.24382e-07 
601.562 3.24434e-07 
602.051 3.24486e-07 
602.539 3.24539e-07 
603.027 3.24591e-07 
603.516 3.24644e-07 
604.004 3.24697e-07 
604.492 3.2475e-07 
604.98 3.24802e-07 
605.469 3.24855e-07 
605.957 3.24908e-07 
606.445 3.24961e-07 
606.934 3.25014e-07 
607.422 3.25068e-07 
607.91 3.25121e-07 
608.398 3.25174e-07 
608.887 3.25227e-07 
609.375 3.25281e-07 
609.863 3.25334e-07 
610.352 3.25387e-07 
610.84 3.25441e-07 
611.328 3.25494e-07 
611.816 3.25548e-07 
612.305 3.25601e-07 
612.793 3.25655e-07 
613.281 3.25709e-07 
613.77 3.25763e-07 
614.258 3.25816e-07 
614.746 3.2587e-07 
615.234 3.25924e-07 
615.723 3.25978e-07 
616.211 3.26032e-07 
616.699 3.26086e-07 
617.188 3.2614e-07 
617.676 3.26194e-07 
618.164 3.26248e-07 
618.652 3.26302e-07 
619.141 3.26356e-07 
619.629 3.2641e-07 
620.117 3.26465e-07 
620.605 3.26519e-07 
621.094 3.26573e-07 
621.582 3.26628e-07 
622.07 3.26682e-07 
622.559 3.26737e-07 
623.047 3.26791e-07 
623.535 3.26846e-07 
624.023 3.269e-07 
624.512 3.26955e-07 
625 3.2701e-07 
625.488 3.27065e-07 
625.977 3.27119e-07 
626.465 3.27174e-07 
626.953 3.27229e-07 
627.441 3.27284e-07 
627.93 3.27339e-07 
628.418 3.27394e-07 
628.906 3.27449e-07 
629.395 3.27504e-07 
629.883 3.2756e-07 
630.371 3.27615e-07 
630.859 3.2767e-07 
631.348 3.27726e-07 
631.836 3.27781e-07 
632.324 3.27837e-07 
632.812 3.27892e-07 
633.301 3.27948e-07 
633.789 3.28004e-07 
634.277 3.2806e-07 
634.766 3.28116e-07 
635.254 3.28171e-07 
635.742 3.28227e-07 
636.23 3.28284e-07 
636.719 3.2834e-07 
637.207 3.28396e-07 
637.695 3.28452e-07 
638.184 3.28509e-07 
638.672 3.28565e-07 
639.16 3.28621e-07 
639.648 3.28678e-07 
640.137 3.28734e-07 
640.625 3.28791e-07 
641.113 3.28848e-07 
641.602 3.28905e-07 
642.09 3.28962e-07 
642.578 3.29018e-07 
643.066 3.29076e-07 
643.555 3.29133e-07 
644.043 3.2919e-07 
644.531 3.29247e-07 
645.02 3.29304e-07 
645.508 3.29361e-07 
645.996 3.29418e-07 
646.484 3.29476e-07 
646.973 3.29533e-07 
647.461 3.29591e-07 
647.949 3.29648e-07 
648.438 3.29706e-07 
648.926 3.29764e-07 
649.414 3.29821e-07 
649.902 3.29879e-07 
650.391 3.29937e-07 
650.879 3.29995e-07 
651.367 3.30053e-07 
651.855 3.30111e-07 
652.344 3.30169e-07 
652.832 3.30227e-07 
653.32 3.30285e-07 
653.809 3.30343e-07 
654.297 3.30401e-07 
654.785 3.30459e-07 
655.273 3.30518e-07 
655.762 3.30576e-07 
656.25 3.30635e-07 
656.738 3.30693e-07 
657.227 3.30752e-07 
657.715 3.3081e-07 
658.203 3.30869e-07 
658.691 3.30927e-07 
659.18 3.30986e-07 
659.668 3.31045e-07 
660.156 3.31104e-07 
660.645 3.31163e-07 
661.133 3.31222e-07 
661.621 3.31281e-07 
662.109 3.3134e-07 
662.598 3.31399e-07 
663.086 3.31458e-07 
663.574 3.31517e-07 
664.062 3.31577e-07 
664.551 3.31636e-07 
665.039 3.31696e-07 
665.527 3.31755e-07 
666.016 3.31815e-07 
666.504 3.31875e-07 
666.992 3.31934e-07 
667.48 3.31994e-07 
667.969 3.32054e-07 
668.457 3.32114e-07 
668.945 3.32174e-07 
669.434 3.32235e-07 
669.922 3.32295e-07 
670.41 3.32355e-07 
670.898 3.32415e-07 
671.387 3.32476e-07 
671.875 3.32536e-07 
672.363 3.32597e-07 
672.852 3.32657e-07 
673.34 3.32718e-07 
673.828 3.32779e-07 
674.316 3.3284e-07 
674.805 3.32901e-07 
675.293 3.32962e-07 
675.781 3.33023e-07 
676.27 3.33084e-07 
676.758 3.33145e-07 
677.246 3.33207e-07 
677.734 3.33268e-07 
678.223 3.3333e-07 
678.711 3.33391e-07 
679.199 3.33453e-07 
679.688 3.33514e-07 
680.176 3.33576e-07 
680.664 3.33638e-07 
681.152 3.337e-07 
681.641 3.33762e-07 
682.129 3.33823e-07 
682.617 3.33885e-07 
683.105 3.33947e-07 
683.594 3.3401e-07 
684.082 3.34072e-07 
684.57 3.34134e-07 
685.059 3.34197e-07 
685.547 3.34259e-07 
686.035 3.34321e-07 
686.523 3.34384e-07 
687.012 3.34446e-07 
687.5 3.34509e-07 
687.988 3.34572e-07 
688.477 3.34634e-07 
688.965 3.34697e-07 
689.453 3.3476e-07 
689.941 3.34823e-07 
690.43 3.34886e-07 
690.918 3.34949e-07 
691.406 3.35012e-07 
691.895 3.35075e-07 
692.383 3.35138e-07 
692.871 3.35202e-07 
693.359 3.35265e-07 
693.848 3.35328e-07 
694.336 3.35392e-07 
694.824 3.35455e-07 
695.312 3.35519e-07 
695.801 3.35583e-07 
696.289 3.35646e-07 
696.777 3.3571e-07 
697.266 3.35774e-07 
697.754 3.35838e-07 
698.242 3.35902e-07 
698.73 3.35966e-07 
699.219 3.3603e-07 
699.707 3.36095e-07 
700.195 3.36159e-07 
700.684 3.36224e-07 
701.172 3.36288e-07 
701.66 3.36353e-07 
702.148 3.36418e-07 
702.637 3.36482e-07 
703.125 3.36547e-07 
703.613 3.36612e-07 
704.102 3.36677e-07 
704.59 3.36743e-07 
705.078 3.36808e-07 
705.566 3.36873e-07 
706.055 3.36939e-07 
706.543 3.37004e-07 
707.031 3.3707e-07 
707.52 3.37136e-07 
708.008 3.37201e-07 
708.496 3.37267e-07 
708.984 3.37333e-07 
709.473 3.37399e-07 
709.961 3.37465e-07 
710.449 3.37532e-07 
710.938 3.37598e-07 
711.426 3.37664e-07 
711.914 3.37731e-07 
712.402 3.37797e-07 
712.891 3.37864e-07 
713.379 3.37931e-07 
713.867 3.37997e-07 
714.355 3.38064e-07 
714.844 3.38131e-07 
715.332 3.38198e-07 
715.82 3.38266e-07 
716.309 3.38333e-07 
716.797 3.384e-07 
717.285 3.38467e-07 
717.773 3.38535e-07 
718.262 3.38602e-07 
718.75 3.3867e-07 
719.238 3.38738e-07 
719.727 3.38805e-07 
720.215 3.38873e-07 
720.703 3.38941e-07 
721.191 3.39009e-07 
721.68 3.39077e-07 
722.168 3.39145e-07 
722.656 3.39213e-07 
723.145 3.39282e-07 
723.633 3.3935e-07 
724.121 3.39418e-07 
724.609 3.39487e-07 
725.098 3.39555e-07 
725.586 3.39624e-07 
726.074 3.39693e-07 
726.562 3.39762e-07 
727.051 3.3983e-07 
727.539 3.399e-07 
728.027 3.39969e-07 
728.516 3.40038e-07 
729.004 3.40107e-07 
729.492 3.40176e-07 
729.98 3.40246e-07 
730.469 3.40315e-07 
730.957 3.40385e-07 
731.445 3.40455e-07 
731.934 3.40525e-07 
732.422 3.40594e-07 
732.91 3.40664e-07 
733.398 3.40735e-07 
733.887 3.40805e-07 
734.375 3.40875e-07 
734.863 3.40945e-07 
735.352 3.41016e-07 
735.84 3.41087e-07 
736.328 3.41157e-07 
736.816 3.41228e-07 
737.305 3.41299e-07 
737.793 3.4137e-07 
738.281 3.41441e-07 
738.77 3.41512e-07 
739.258 3.41583e-07 
739.746 3.41655e-07 
740.234 3.41726e-07 
740.723 3.41798e-07 
741.211 3.4187e-07 
741.699 3.41941e-07 
742.188 3.42013e-07 
742.676 3.42085e-07 
743.164 3.42157e-07 
743.652 3.42229e-07 
744.141 3.42301e-07 
744.629 3.42374e-07 
745.117 3.42446e-07 
745.605 3.42518e-07 
746.094 3.42591e-07 
746.582 3.42664e-07 
747.07 3.42736e-07 
747.559 3.42809e-07 
748.047 3.42882e-07 
748.535 3.42955e-07 
749.023 3.43028e-07 
749.512 3.43101e-07 
750 3.43174e-07 
750.488 3.43248e-07 
750.977 3.43321e-07 
751.465 3.43394e-07 
751.953 3.43468e-07 
752.441 3.43542e-07 
752.93 3.43615e-07 
753.418 3.43689e-07 
753.906 3.43763e-07 
754.395 3.43837e-07 
754.883 3.43911e-07 
755.371 3.43985e-07 
755.859 3.44059e-07 
756.348 3.44133e-07 
756.836 3.44208e-07 
757.324 3.44282e-07 
757.812 3.44357e-07 
758.301 3.44431e-07 
758.789 3.44506e-07 
759.277 3.44581e-07 
759.766 3.44656e-07 
760.254 3.44731e-07 
760.742 3.44806e-07 
761.23 3.44882e-07 
761.719 3.44957e-07 
762.207 3.45032e-07 
762.695 3.45108e-07 
763.184 3.45184e-07 
763.672 3.4526e-07 
764.16 3.45335e-07 
764.648 3.45411e-07 
765.137 3.45488e-07 
765.625 3.45564e-07 
766.113 3.4564e-07 
766.602 3.45717e-07 
767.09 3.45793e-07 
767.578 3.4587e-07 
768.066 3.45947e-07 
768.555 3.46024e-07 
769.043 3.46101e-07 
769.531 3.46178e-07 
770.02 3.46256e-07 
770.508 3.46333e-07 
770.996 3.46411e-07 
771.484 3.46488e-07 
771.973 3.46566e-07 
772.461 3.46644e-07 
772.949 3.46722e-07 
773.438 3.468e-07 
773.926 3.46878e-07 
774.414 3.46957e-07 
774.902 3.47035e-07 
775.391 3.47114e-07 
775.879 3.47193e-07 
776.367 3.47272e-07 
776.855 3.47351e-07 
777.344 3.4743e-07 
777.832 3.47509e-07 
778.32 3.47589e-07 
778.809 3.47668e-07 
779.297 3.47748e-07 
779.785 3.47828e-07 
780.273 3.47907e-07 
780.762 3.47987e-07 
781.25 3.48068e-07 
781.738 3.48148e-07 
782.227 3.48228e-07 
782.715 3.48309e-07 
783.203 3.48389e-07 
783.691 3.4847e-07 
784.18 3.4855e-07 
784.668 3.48631e-07 
785.156 3.48712e-07 
785.645 3.48794e-07 
786.133 3.48875e-07 
786.621 3.48956e-07 
787.109 3.49038e-07 
787.598 3.4912e-07 
788.086 3.49201e-07 
788.574 3.49283e-07 
789.062 3.49365e-07 
789.551 3.49447e-07 
790.039 3.4953e-07 
790.527 3.49612e-07 
791.016 3.49695e-07 
791.504 3.49777e-07 
791.992 3.4986e-07 
792.48 3.49943e-07 
792.969 3.50026e-07 
793.457 3.50109e-07 
793.945 3.50192e-07 
794.434 3.50275e-07 
794.922 3.50359e-07 
795.41 3.50442e-07 
795.898 3.50526e-07 
796.387 3.5061e-07 
796.875 3.50694e-07 
797.363 3.50778e-07 
797.852 3.50862e-07 
798.34 3.50946e-07 
798.828 3.51031e-07 
799.316 3.51115e-07 
799.805 3.512e-07 
800.293 3.51284e-07 
800.781 3.51369e-07 
801.27 3.51454e-07 
801.758 3.51539e-07 
802.246 3.51624e-07 
802.734 3.51709e-07 
803.223 3.51794e-07 
803.711 3.5188e-07 
804.199 3.51965e-07 
804.688 3.52051e-07 
805.176 3.52137e-07 
805.664 3.52223e-07 
806.152 3.52309e-07 
806.641 3.52395e-07 
807.129 3.52481e-07 
807.617 3.52567e-07 
808.105 3.52654e-07 
808.594 3.5274e-07 
809.082 3.52827e-07 
809.57 3.52914e-07 
810.059 3.53001e-07 
810.547 3.53088e-07 
811.035 3.53175e-07 
811.523 3.53262e-07 
812.012 3.5335e-07 
812.5 3.53437e-07 
812.988 3.53525e-07 
813.477 3.53613e-07 
813.965 3.537e-07 
814.453 3.53789e-07 
814.941 3.53877e-07 
815.43 3.53965e-07 
815.918 3.54054e-07 
816.406 3.54142e-07 
816.895 3.54231e-07 
817.383 3.5432e-07 
817.871 3.54409e-07 
818.359 3.54499e-07 
818.848 3.54588e-07 
819.336 3.54677e-07 
819.824 3.54767e-07 
820.312 3.54857e-07 
820.801 3.54947e-07 
821.289 3.55037e-07 
821.777 3.55127e-07 
822.266 3.55218e-07 
822.754 3.55308e-07 
823.242 3.55399e-07 
823.73 3.5549e-07 
824.219 3.55581e-07 
824.707 3.55673e-07 
825.195 3.55764e-07 
825.684 3.55856e-07 
826.172 3.55947e-07 
826.66 3.56039e-07 
827.148 3.56131e-07 
827.637 3.56223e-07 
828.125 3.56316e-07 
828.613 3.56408e-07 
829.102 3.56501e-07 
829.59 3.56594e-07 
830.078 3.56687e-07 
830.566 3.5678e-07 
831.055 3.56873e-07 
831.543 3.56966e-07 
832.031 3.5706e-07 
832.52 3.57154e-07 
833.008 3.57248e-07 
833.496 3.57342e-07 
833.984 3.57436e-07 
834.473 3.5753e-07 
834.961 3.57625e-07 
835.449 3.57719e-07 
835.938 3.57814e-07 
836.426 3.57909e-07 
836.914 3.58004e-07 
837.402 3.581e-07 
837.891 3.58196e-07 
838.379 3.58291e-07 
838.867 3.58387e-07 
839.355 3.58483e-07 
839.844 3.5858e-07 
840.332 3.58676e-07 
840.82 3.58773e-07 
841.309 3.5887e-07 
841.797 3.58967e-07 
842.285 3.59065e-07 
842.773 3.59162e-07 
843.262 3.5926e-07 
843.75 3.59358e-07 
844.238 3.59456e-07 
844.727 3.59554e-07 
845.215 3.59653e-07 
845.703 3.59751e-07 
846.191 3.5985e-07 
846.68 3.59949e-07 
847.168 3.60049e-07 
847.656 3.60148e-07 
848.145 3.60248e-07 
848.633 3.60347e-07 
849.121 3.60447e-07 
849.609 3.60547e-07 
850.098 3.60647e-07 
850.586 3.60748e-07 
851.074 3.60848e-07 
851.562 3.60949e-07 
852.051 3.61049e-07 
852.539 3.6115e-07 
853.027 3.61251e-07 
853.516 3.61352e-07 
854.004 3.61453e-07 
854.492 3.61554e-07 
854.98 3.61655e-07 
855.469 3.61756e-07 
855.957 3.61858e-07 
856.445 3.61959e-07 
856.934 3.6206e-07 
857.422 3.62162e-07 
857.91 3.62264e-07 
858.398 3.62365e-07 
858.887 3.62467e-07 
859.375 3.62569e-07 
859.863 3.62671e-07 
860.352 3.62773e-07 
860.84 3.62875e-07 
861.328 3.62977e-07 
861.816 3.63079e-07 
862.305 3.63181e-07 
862.793 3.63284e-07 
863.281 3.63387e-07 
863.77 3.63489e-07 
864.258 3.63592e-07 
864.746 3.63696e-07 
865.234 3.63799e-07 
865.723 3.63903e-07 
866.211 3.64006e-07 
866.699 3.6411e-07 
867.188 3.64215e-07 
867.676 3.6432e-07 
868.164 3.64425e-07 
868.652 3.6453e-07 
869.141 3.64636e-07 
869.629 3.64741e-07 
870.117 3.64848e-07 
870.605 3.64954e-07 
871.094 3.65061e-07 
871.582 3.65169e-07 
872.07 3.65276e-07 
872.559 3.65385e-07 
873.047 3.65493e-07 
873.535 3.65602e-07 
874.023 3.65712e-07 
874.512 3.65822e-07 
875 3.65932e-07 
875.488 3.66042e-07 
875.977 3.66153e-07 
876.465 3.66265e-07 
876.953 3.66377e-07 
877.441 3.66489e-07 
877.93 3.66601e-07 
878.418 3.66714e-07 
878.906 3.66827e-07 
879.395 3.66941e-07 
879.883 3.67055e-07 
880.371 3.67169e-07 
880.859 3.67283e-07 
881.348 3.67398e-07 
881.836 3.67513e-07 
882.324 3.67628e-07 
882.812 3.67743e-07 
883.301 3.67859e-07 
883.789 3.67975e-07 
884.277 3.68091e-07 
884.766 3.68207e-07 
885.254 3.68323e-07 
885.742 3.6844e-07 
886.23 3.68556e-07 
886.719 3.68673e-07 
887.207 3.6879e-07 
887.695 3.68907e-07 
888.184 3.69024e-07 
888.672 3.69142e-07 
889.16 3.6926e-07 
889.648 3.69378e-07 
890.137 3.69496e-07 
890.625 3.69614e-07 
891.113 3.69733e-07 
891.602 3.69852e-07 
892.09 3.69971e-07 
892.578 3.70091e-07 
893.066 3.70211e-07 
893.555 3.70331e-07 
894.043 3.70452e-07 
894.531 3.70573e-07 
895.02 3.70695e-07 
895.508 3.70817e-07 
895.996 3.7094e-07 
896.484 3.71064e-07 
896.973 3.71188e-07 
897.461 3.71312e-07 
897.949 3.71438e-07 
898.438 3.71564e-07 
898.926 3.7169e-07 
899.414 3.71818e-07 
899.902 3.71946e-07 
900.391 3.72075e-07 
900.879 3.72205e-07 
901.367 3.72336e-07 
901.855 3.72467e-07 
902.344 3.72599e-07 
902.832 3.72732e-07 
903.32 3.72866e-07 
903.809 3.73e-07 
904.297 3.73136e-07 
904.785 3.73272e-07 
905.273 3.73408e-07 
905.762 3.73546e-07 
906.25 3.73684e-07 
906.738 3.73823e-07 
907.227 3.73963e-07 
907.715 3.74103e-07 
908.203 3.74243e-07 
908.691 3.74385e-07 
909.18 3.74527e-07 
909.668 3.74669e-07 
910.156 3.74811e-07 
910.645 3.74955e-07 
911.133 3.75098e-07 
911.621 3.75242e-07 
912.109 3.75386e-07 
912.598 3.75531e-07 
913.086 3.75676e-07 
913.574 3.75821e-07 
914.062 3.75967e-07 
914.551 3.76113e-07 
915.039 3.76258e-07 
915.527 3.76405e-07 
916.016 3.76551e-07 
916.504 3.76697e-07 
916.992 3.76844e-07 
917.48 3.76991e-07 
917.969 3.77138e-07 
918.457 3.77286e-07 
918.945 3.77434e-07 
919.434 3.77582e-07 
919.922 3.7773e-07 
920.41 3.77878e-07 
920.898 3.78027e-07 
921.387 3.78176e-07 
921.875 3.78326e-07 
922.363 3.78476e-07 
922.852 3.78626e-07 
923.34 3.78776e-07 
923.828 3.78928e-07 
924.316 3.79079e-07 
924.805 3.79231e-07 
925.293 3.79383e-07 
925.781 3.79536e-07 
926.27 3.7969e-07 
926.758 3.79844e-07 
927.246 3.79999e-07 
927.734 3.80154e-07 
928.223 3.80309e-07 
928.711 3.80466e-07 
929.199 3.80622e-07 
929.688 3.8078e-07 
930.176 3.80938e-07 
930.664 3.81096e-07 
931.152 3.81255e-07 
931.641 3.81414e-07 
932.129 3.81574e-07 
932.617 3.81735e-07 
933.105 3.81896e-07 
933.594 3.82057e-07 
934.082 3.82219e-07 
934.57 3.82381e-07 
935.059 3.82543e-07 
935.547 3.82706e-07 
936.035 3.82869e-07 
936.523 3.83033e-07 
937.012 3.83197e-07 
937.5 3.83361e-07 
937.988 3.83526e-07 
938.477 3.83691e-07 
938.965 3.83856e-07 
939.453 3.84021e-07 
939.941 3.84187e-07 
940.43 3.84353e-07 
940.918 3.84519e-07 
941.406 3.84686e-07 
941.895 3.84853e-07 
942.383 3.8502e-07 
942.871 3.85188e-07 
943.359 3.85356e-07 
943.848 3.85524e-07 
944.336 3.85693e-07 
944.824 3.85863e-07 
945.312 3.86033e-07 
945.801 3.86203e-07 
946.289 3.86374e-07 
946.777 3.86545e-07 
947.266 3.86717e-07 
947.754 3.86889e-07 
948.242 3.87062e-07 
948.73 3.87236e-07 
949.219 3.8741e-07 
949.707 3.87585e-07 
950.195 3.87761e-07 
950.684 3.87937e-07 
951.172 3.88114e-07 
951.66 3.88292e-07 
952.148 3.88471e-07 
952.637 3.8865e-07 
953.125 3.88829e-07 
953.613 3.8901e-07 
954.102 3.89191e-07 
954.59 3.89373e-07 
955.078 3.89555e-07 
955.566 3.89738e-07 
956.055 3.89921e-07 
956.543 3.90105e-07 
957.031 3.9029e-07 
957.52 3.90475e-07 
958.008 3.90661e-07 
958.496 3.90847e-07 
958.984 3.91033e-07 
959.473 3.9122e-07 
959.961 3.91408e-07 
960.449 3.91596e-07 
960.938 3.91784e-07 
961.426 3.91973e-07 
961.914 3.92162e-07 
962.402 3.92351e-07 
962.891 3.92541e-07 
963.379 3.92732e-07 
963.867 3.92923e-07 
964.355 3.93114e-07 
964.844 3.93306e-07 
965.332 3.93498e-07 
965.82 3.93691e-07 
966.309 3.93884e-07 
966.797 3.94078e-07 
967.285 3.94273e-07 
967.773 3.94468e-07 
968.262 3.94664e-07 
968.75 3.9486e-07 
969.238 3.95057e-07 
