#energy geo_1 
500 3.10628e-07 
500.488 3.1067e-07 
500.977 3.10712e-07 
501.465 3.10754e-07 
501.953 3.10796e-07 
502.441 3.10839e-07 
502.93 3.10881e-07 
503.418 3.10923e-07 
503.906 3.10965e-07 
504.395 3.11008e-07 
504.883 3.1105e-07 
505.371 3.11093e-07 
505.859 3.11135e-07 
506.348 3.11178e-07 
506.836 3.11221e-07 
507.324 3.11264e-07 
507.812 3.11306e-07 
508.301 3.11349e-07 
508.789 3.11392e-07 
509.277 3.11435e-07 
509.766 3.11478e-07 
510.254 3.11521e-07 
510.742 3.11565e-07 
511.23 3.11608e-07 
511.719 3.11651e-07 
512.207 3.11694e-07 
512.695 3.11738e-07 
513.184 3.11781e-07 
513.672 3.11824e-07 
514.16 3.11868e-07 
514.648 3.11911e-07 
515.137 3.11954e-07 
515.625 3.11998e-07 
516.113 3.12041e-07 
516.602 3.12084e-07 
517.09 3.12128e-07 
517.578 3.12171e-07 
518.066 3.12214e-07 
518.555 3.12258e-07 
519.043 3.12301e-07 
519.531 3.12344e-07 
520.02 3.12388e-07 
520.508 3.12431e-07 
520.996 3.12474e-07 
521.484 3.12518e-07 
521.973 3.12561e-07 
522.461 3.12604e-07 
522.949 3.12648e-07 
523.438 3.12691e-07 
523.926 3.12735e-07 
524.414 3.12778e-07 
524.902 3.12822e-07 
525.391 3.12865e-07 
525.879 3.12908e-07 
526.367 3.12952e-07 
526.855 3.12996e-07 
527.344 3.13039e-07 
527.832 3.13083e-07 
528.32 3.13126e-07 
528.809 3.1317e-07 
529.297 3.13214e-07 
529.785 3.13258e-07 
530.273 3.13302e-07 
530.762 3.13346e-07 
531.25 3.1339e-07 
531.738 3.13434e-07 
532.227 3.13478e-07 
532.715 3.13522e-07 
533.203 3.13566e-07 
533.691 3.13611e-07 
534.18 3.13655e-07 
534.668 3.137e-07 
535.156 3.13744e-07 
535.645 3.13789e-07 
536.133 3.13833e-07 
536.621 3.13878e-07 
537.109 3.13923e-07 
537.598 3.13967e-07 
538.086 3.14012e-07 
538.574 3.14057e-07 
539.062 3.14102e-07 
539.551 3.14147e-07 
540.039 3.14192e-07 
540.527 3.14237e-07 
541.016 3.14282e-07 
541.504 3.14327e-07 
541.992 3.14372e-07 
542.48 3.14417e-07 
542.969 3.14463e-07 
543.457 3.14508e-07 
543.945 3.14553e-07 
544.434 3.14598e-07 
544.922 3.14644e-07 
545.41 3.14689e-07 
545.898 3.14734e-07 
546.387 3.1478e-07 
546.875 3.14825e-07 
547.363 3.1487e-07 
547.852 3.14916e-07 
548.34 3.14961e-07 
548.828 3.15006e-07 
549.316 3.15052e-07 
549.805 3.15097e-07 
550.293 3.15143e-07 
550.781 3.15188e-07 
551.27 3.15234e-07 
551.758 3.15279e-07 
552.246 3.15325e-07 
552.734 3.1537e-07 
553.223 3.15416e-07 
553.711 3.15462e-07 
554.199 3.15507e-07 
554.688 3.15553e-07 
555.176 3.15598e-07 
555.664 3.15644e-07 
556.152 3.1569e-07 
556.641 3.15736e-07 
557.129 3.15782e-07 
557.617 3.15827e-07 
558.105 3.15873e-07 
558.594 3.15919e-07 
559.082 3.15965e-07 
559.57 3.16011e-07 
560.059 3.16057e-07 
560.547 3.16104e-07 
561.035 3.1615e-07 
561.523 3.16196e-07 
562.012 3.16242e-07 
562.5 3.16289e-07 
562.988 3.16335e-07 
563.477 3.16382e-07 
563.965 3.16428e-07 
564.453 3.16475e-07 
564.941 3.16521e-07 
565.43 3.16568e-07 
565.918 3.16615e-07 
566.406 3.16662e-07 
566.895 3.16708e-07 
567.383 3.16755e-07 
567.871 3.16802e-07 
568.359 3.16849e-07 
568.848 3.16896e-07 
569.336 3.16943e-07 
569.824 3.1699e-07 
570.312 3.17037e-07 
570.801 3.17085e-07 
571.289 3.17132e-07 
571.777 3.17179e-07 
572.266 3.17227e-07 
572.754 3.17274e-07 
573.242 3.17321e-07 
573.73 3.17369e-07 
574.219 3.17416e-07 
574.707 3.17464e-07 
575.195 3.17511e-07 
575.684 3.17559e-07 
576.172 3.17606e-07 
576.66 3.17654e-07 
577.148 3.17702e-07 
577.637 3.17749e-07 
578.125 3.17797e-07 
578.613 3.17845e-07 
579.102 3.17893e-07 
579.59 3.17941e-07 
580.078 3.17989e-07 
580.566 3.18036e-07 
581.055 3.18084e-07 
581.543 3.18132e-07 
582.031 3.1818e-07 
582.52 3.18228e-07 
583.008 3.18276e-07 
583.496 3.18324e-07 
583.984 3.18373e-07 
584.473 3.18421e-07 
584.961 3.18469e-07 
585.449 3.18517e-07 
585.938 3.18565e-07 
586.426 3.18614e-07 
586.914 3.18662e-07 
587.402 3.1871e-07 
587.891 3.18759e-07 
588.379 3.18807e-07 
588.867 3.18856e-07 
589.355 3.18904e-07 
589.844 3.18953e-07 
590.332 3.19001e-07 
590.82 3.1905e-07 
591.309 3.19099e-07 
591.797 3.19147e-07 
592.285 3.19196e-07 
592.773 3.19245e-07 
593.262 3.19294e-07 
593.75 3.19343e-07 
594.238 3.19392e-07 
594.727 3.19441e-07 
595.215 3.1949e-07 
595.703 3.19539e-07 
596.191 3.19588e-07 
596.68 3.19637e-07 
597.168 3.19687e-07 
597.656 3.19736e-07 
598.145 3.19785e-07 
598.633 3.19835e-07 
599.121 3.19884e-07 
599.609 3.19934e-07 
600.098 3.19983e-07 
600.586 3.20033e-07 
601.074 3.20082e-07 
601.562 3.20132e-07 
602.051 3.20182e-07 
602.539 3.20232e-07 
603.027 3.20282e-07 
603.516 3.20332e-07 
604.004 3.20382e-07 
604.492 3.20432e-07 
604.98 3.20482e-07 
605.469 3.20532e-07 
605.957 3.20582e-07 
606.445 3.20632e-07 
606.934 3.20683e-07 
607.422 3.20733e-07 
607.91 3.20783e-07 
608.398 3.20833e-07 
608.887 3.20884e-07 
609.375 3.20934e-07 
609.863 3.20985e-07 
610.352 3.21035e-07 
610.84 3.21086e-07 
611.328 3.21137e-07 
611.816 3.21187e-07 
612.305 3.21238e-07 
612.793 3.21289e-07 
613.281 3.21339e-07 
613.77 3.2139e-07 
614.258 3.21441e-07 
614.746 3.21492e-07 
615.234 3.21543e-07 
615.723 3.21594e-07 
616.211 3.21645e-07 
616.699 3.21696e-07 
617.188 3.21748e-07 
617.676 3.21799e-07 
618.164 3.2185e-07 
618.652 3.21901e-07 
619.141 3.21952e-07 
619.629 3.22004e-07 
620.117 3.22055e-07 
620.605 3.22107e-07 
621.094 3.22158e-07 
621.582 3.2221e-07 
622.07 3.22261e-07 
622.559 3.22313e-07 
623.047 3.22364e-07 
623.535 3.22416e-07 
624.023 3.22468e-07 
624.512 3.22519e-07 
625 3.22571e-07 
625.488 3.22623e-07 
625.977 3.22675e-07 
626.465 3.22727e-07 
626.953 3.22779e-07 
627.441 3.22831e-07 
627.93 3.22883e-07 
628.418 3.22935e-07 
628.906 3.22988e-07 
629.395 3.2304e-07 
629.883 3.23092e-07 
630.371 3.23145e-07 
630.859 3.23197e-07 
631.348 3.23249e-07 
631.836 3.23302e-07 
632.324 3.23355e-07 
632.812 3.23407e-07 
633.301 3.2346e-07 
633.789 3.23513e-07 
634.277 3.23565e-07 
634.766 3.23618e-07 
635.254 3.23671e-07 
635.742 3.23724e-07 
636.23 3.23777e-07 
636.719 3.2383e-07 
637.207 3.23883e-07 
637.695 3.23937e-07 
638.184 3.2399e-07 
638.672 3.24043e-07 
639.16 3.24096e-07 
639.648 3.2415e-07 
640.137 3.24203e-07 
640.625 3.24257e-07 
641.113 3.2431e-07 
641.602 3.24364e-07 
642.09 3.24418e-07 
642.578 3.24471e-07 
643.066 3.24525e-07 
643.555 3.24579e-07 
644.043 3.24633e-07 
644.531 3.24687e-07 
645.02 3.24741e-07 
645.508 3.24795e-07 
645.996 3.24849e-07 
646.484 3.24903e-07 
646.973 3.24957e-07 
647.461 3.25011e-07 
647.949 3.25066e-07 
648.438 3.2512e-07 
648.926 3.25175e-07 
649.414 3.25229e-07 
649.902 3.25283e-07 
650.391 3.25338e-07 
650.879 3.25392e-07 
651.367 3.25447e-07 
651.855 3.25502e-07 
652.344 3.25556e-07 
652.832 3.25611e-07 
653.32 3.25666e-07 
653.809 3.25721e-07 
654.297 3.25776e-07 
654.785 3.25831e-07 
655.273 3.25886e-07 
655.762 3.25941e-07 
656.25 3.25996e-07 
656.738 3.26051e-07 
657.227 3.26106e-07 
657.715 3.26161e-07 
658.203 3.26217e-07 
658.691 3.26272e-07 
659.18 3.26328e-07 
659.668 3.26383e-07 
660.156 3.26439e-07 
660.645 3.26494e-07 
661.133 3.2655e-07 
661.621 3.26605e-07 
662.109 3.26661e-07 
662.598 3.26717e-07 
663.086 3.26773e-07 
663.574 3.26829e-07 
664.062 3.26885e-07 
664.551 3.26941e-07 
665.039 3.26997e-07 
665.527 3.27053e-07 
666.016 3.27109e-07 
666.504 3.27165e-07 
666.992 3.27222e-07 
667.48 3.27278e-07 
667.969 3.27334e-07 
668.457 3.27391e-07 
668.945 3.27447e-07 
669.434 3.27504e-07 
669.922 3.27561e-07 
670.41 3.27618e-07 
670.898 3.27674e-07 
671.387 3.27731e-07 
671.875 3.27788e-07 
672.363 3.27845e-07 
672.852 3.27902e-07 
673.34 3.27959e-07 
673.828 3.28017e-07 
674.316 3.28074e-07 
674.805 3.28131e-07 
675.293 3.28188e-07 
675.781 3.28246e-07 
676.27 3.28303e-07 
676.758 3.28361e-07 
677.246 3.28418e-07 
677.734 3.28476e-07 
678.223 3.28534e-07 
678.711 3.28592e-07 
679.199 3.2865e-07 
679.688 3.28708e-07 
680.176 3.28766e-07 
680.664 3.28823e-07 
681.152 3.28882e-07 
681.641 3.2894e-07 
682.129 3.28998e-07 
682.617 3.29056e-07 
683.105 3.29114e-07 
683.594 3.29173e-07 
684.082 3.29231e-07 
684.57 3.2929e-07 
685.059 3.29348e-07 
685.547 3.29407e-07 
686.035 3.29465e-07 
686.523 3.29524e-07 
687.012 3.29583e-07 
687.5 3.29642e-07 
687.988 3.297e-07 
688.477 3.29759e-07 
688.965 3.29818e-07 
689.453 3.29877e-07 
689.941 3.29936e-07 
690.43 3.29996e-07 
690.918 3.30055e-07 
691.406 3.30114e-07 
691.895 3.30173e-07 
692.383 3.30233e-07 
692.871 3.30292e-07 
693.359 3.30352e-07 
693.848 3.30411e-07 
694.336 3.30471e-07 
694.824 3.3053e-07 
695.312 3.3059e-07 
695.801 3.3065e-07 
696.289 3.3071e-07 
696.777 3.3077e-07 
697.266 3.3083e-07 
697.754 3.3089e-07 
698.242 3.3095e-07 
698.73 3.3101e-07 
699.219 3.3107e-07 
699.707 3.3113e-07 
700.195 3.31191e-07 
700.684 3.31251e-07 
701.172 3.31312e-07 
701.66 3.31372e-07 
702.148 3.31433e-07 
702.637 3.31494e-07 
703.125 3.31555e-07 
703.613 3.31615e-07 
704.102 3.31677e-07 
704.59 3.31738e-07 
705.078 3.31799e-07 
705.566 3.3186e-07 
706.055 3.31921e-07 
706.543 3.31982e-07 
707.031 3.32044e-07 
707.52 3.32105e-07 
708.008 3.32167e-07 
708.496 3.32228e-07 
708.984 3.3229e-07 
709.473 3.32352e-07 
709.961 3.32414e-07 
710.449 3.32476e-07 
710.938 3.32537e-07 
711.426 3.326e-07 
711.914 3.32662e-07 
712.402 3.32724e-07 
712.891 3.32786e-07 
713.379 3.32848e-07 
713.867 3.32911e-07 
714.355 3.32973e-07 
714.844 3.33036e-07 
715.332 3.33098e-07 
715.82 3.33161e-07 
716.309 3.33224e-07 
716.797 3.33287e-07 
717.285 3.3335e-07 
717.773 3.33412e-07 
718.262 3.33475e-07 
718.75 3.33538e-07 
719.238 3.33602e-07 
719.727 3.33665e-07 
720.215 3.33728e-07 
720.703 3.33791e-07 
721.191 3.33855e-07 
721.68 3.33918e-07 
722.168 3.33982e-07 
722.656 3.34045e-07 
723.145 3.34109e-07 
723.633 3.34173e-07 
724.121 3.34237e-07 
724.609 3.34301e-07 
725.098 3.34365e-07 
725.586 3.34429e-07 
726.074 3.34493e-07 
726.562 3.34557e-07 
727.051 3.34621e-07 
727.539 3.34685e-07 
728.027 3.3475e-07 
728.516 3.34814e-07 
729.004 3.34879e-07 
729.492 3.34943e-07 
729.98 3.35008e-07 
730.469 3.35073e-07 
730.957 3.35138e-07 
731.445 3.35202e-07 
731.934 3.35268e-07 
732.422 3.35333e-07 
732.91 3.35398e-07 
733.398 3.35463e-07 
733.887 3.35528e-07 
734.375 3.35594e-07 
734.863 3.35659e-07 
735.352 3.35725e-07 
735.84 3.3579e-07 
736.328 3.35856e-07 
736.816 3.35922e-07 
737.305 3.35988e-07 
737.793 3.36054e-07 
738.281 3.3612e-07 
738.77 3.36186e-07 
739.258 3.36252e-07 
739.746 3.36318e-07 
740.234 3.36385e-07 
740.723 3.36451e-07 
741.211 3.36518e-07 
741.699 3.36584e-07 
742.188 3.36651e-07 
742.676 3.36718e-07 
743.164 3.36785e-07 
743.652 3.36852e-07 
744.141 3.36919e-07 
744.629 3.36986e-07 
745.117 3.37053e-07 
745.605 3.3712e-07 
746.094 3.37188e-07 
746.582 3.37255e-07 
747.07 3.37323e-07 
747.559 3.3739e-07 
748.047 3.37458e-07 
748.535 3.37525e-07 
749.023 3.37593e-07 
749.512 3.37661e-07 
750 3.37729e-07 
750.488 3.37797e-07 
750.977 3.37865e-07 
751.465 3.37934e-07 
751.953 3.38002e-07 
752.441 3.3807e-07 
752.93 3.38138e-07 
753.418 3.38207e-07 
753.906 3.38276e-07 
754.395 3.38344e-07 
754.883 3.38413e-07 
755.371 3.38482e-07 
755.859 3.38551e-07 
756.348 3.3862e-07 
756.836 3.38689e-07 
757.324 3.38758e-07 
757.812 3.38827e-07 
758.301 3.38896e-07 
758.789 3.38966e-07 
759.277 3.39035e-07 
759.766 3.39105e-07 
760.254 3.39174e-07 
760.742 3.39244e-07 
761.23 3.39314e-07 
761.719 3.39384e-07 
762.207 3.39454e-07 
762.695 3.39524e-07 
763.184 3.39594e-07 
763.672 3.39664e-07 
764.16 3.39735e-07 
764.648 3.39805e-07 
765.137 3.39876e-07 
765.625 3.39947e-07 
766.113 3.40017e-07 
766.602 3.40088e-07 
767.09 3.40159e-07 
767.578 3.4023e-07 
768.066 3.40301e-07 
768.555 3.40372e-07 
769.043 3.40444e-07 
769.531 3.40515e-07 
770.02 3.40586e-07 
770.508 3.40658e-07 
770.996 3.4073e-07 
771.484 3.40802e-07 
771.973 3.40874e-07 
772.461 3.40946e-07 
772.949 3.41018e-07 
773.438 3.4109e-07 
773.926 3.41162e-07 
774.414 3.41235e-07 
774.902 3.41307e-07 
775.391 3.4138e-07 
775.879 3.41453e-07 
776.367 3.41525e-07 
776.855 3.41598e-07 
777.344 3.41671e-07 
777.832 3.41745e-07 
778.32 3.41818e-07 
778.809 3.41891e-07 
779.297 3.41964e-07 
779.785 3.42038e-07 
780.273 3.42112e-07 
780.762 3.42185e-07 
781.25 3.42259e-07 
781.738 3.42333e-07 
782.227 3.42407e-07 
782.715 3.42481e-07 
783.203 3.42556e-07 
783.691 3.4263e-07 
784.18 3.42704e-07 
784.668 3.42779e-07 
785.156 3.42854e-07 
785.645 3.42929e-07 
786.133 3.43004e-07 
786.621 3.43078e-07 
787.109 3.43154e-07 
787.598 3.43229e-07 
788.086 3.43304e-07 
788.574 3.43379e-07 
789.062 3.43455e-07 
789.551 3.4353e-07 
790.039 3.43606e-07 
790.527 3.43682e-07 
791.016 3.43758e-07 
791.504 3.43834e-07 
791.992 3.4391e-07 
792.48 3.43986e-07 
792.969 3.44062e-07 
793.457 3.44139e-07 
793.945 3.44215e-07 
794.434 3.44292e-07 
794.922 3.44369e-07 
795.41 3.44446e-07 
795.898 3.44523e-07 
796.387 3.446e-07 
796.875 3.44677e-07 
797.363 3.44754e-07 
797.852 3.44831e-07 
798.34 3.44909e-07 
798.828 3.44987e-07 
799.316 3.45064e-07 
799.805 3.45142e-07 
800.293 3.4522e-07 
800.781 3.45298e-07 
801.27 3.45376e-07 
801.758 3.45454e-07 
802.246 3.45532e-07 
802.734 3.45611e-07 
803.223 3.45689e-07 
803.711 3.45768e-07 
804.199 3.45847e-07 
804.688 3.45926e-07 
805.176 3.46004e-07 
805.664 3.46083e-07 
806.152 3.46163e-07 
806.641 3.46242e-07 
807.129 3.46321e-07 
807.617 3.46401e-07 
808.105 3.4648e-07 
808.594 3.4656e-07 
809.082 3.4664e-07 
809.57 3.4672e-07 
810.059 3.468e-07 
810.547 3.4688e-07 
811.035 3.4696e-07 
811.523 3.47041e-07 
812.012 3.47121e-07 
812.5 3.47202e-07 
812.988 3.47283e-07 
813.477 3.47364e-07 
813.965 3.47445e-07 
814.453 3.47526e-07 
814.941 3.47607e-07 
815.43 3.47688e-07 
815.918 3.4777e-07 
816.406 3.47852e-07 
816.895 3.47933e-07 
817.383 3.48015e-07 
817.871 3.48097e-07 
818.359 3.48179e-07 
818.848 3.48261e-07 
819.336 3.48344e-07 
819.824 3.48426e-07 
820.312 3.48509e-07 
820.801 3.48592e-07 
821.289 3.48674e-07 
821.777 3.48757e-07 
822.266 3.48841e-07 
822.754 3.48924e-07 
823.242 3.49007e-07 
823.73 3.49091e-07 
824.219 3.49174e-07 
824.707 3.49258e-07 
825.195 3.49342e-07 
825.684 3.49426e-07 
826.172 3.4951e-07 
826.66 3.49595e-07 
827.148 3.49679e-07 
827.637 3.49764e-07 
828.125 3.49848e-07 
828.613 3.49933e-07 
829.102 3.50018e-07 
829.59 3.50103e-07 
830.078 3.50189e-07 
830.566 3.50274e-07 
831.055 3.5036e-07 
831.543 3.50445e-07 
832.031 3.50531e-07 
832.52 3.50617e-07 
833.008 3.50703e-07 
833.496 3.50789e-07 
833.984 3.50876e-07 
834.473 3.50962e-07 
834.961 3.51049e-07 
835.449 3.51136e-07 
835.938 3.51223e-07 
836.426 3.5131e-07 
836.914 3.51397e-07 
837.402 3.51485e-07 
837.891 3.51572e-07 
838.379 3.5166e-07 
838.867 3.51748e-07 
839.355 3.51836e-07 
839.844 3.51924e-07 
840.332 3.52012e-07 
840.82 3.52101e-07 
841.309 3.5219e-07 
841.797 3.52278e-07 
842.285 3.52367e-07 
842.773 3.52456e-07 
843.262 3.52546e-07 
843.75 3.52635e-07 
844.238 3.52725e-07 
844.727 3.52815e-07 
845.215 3.52905e-07 
845.703 3.52995e-07 
846.191 3.53085e-07 
846.68 3.53175e-07 
847.168 3.53266e-07 
847.656 3.53356e-07 
848.145 3.53447e-07 
848.633 3.53538e-07 
849.121 3.53629e-07 
849.609 3.53721e-07 
850.098 3.53812e-07 
850.586 3.53904e-07 
851.074 3.53995e-07 
851.562 3.54087e-07 
852.051 3.54179e-07 
852.539 3.54271e-07 
853.027 3.54363e-07 
853.516 3.54455e-07 
854.004 3.54548e-07 
854.492 3.5464e-07 
854.98 3.54733e-07 
855.469 3.54826e-07 
855.957 3.54919e-07 
856.445 3.55012e-07 
856.934 3.55105e-07 
857.422 3.55198e-07 
857.91 3.55291e-07 
858.398 3.55385e-07 
858.887 3.55478e-07 
859.375 3.55572e-07 
859.863 3.55666e-07 
860.352 3.5576e-07 
860.84 3.55854e-07 
861.328 3.55948e-07 
861.816 3.56043e-07 
862.305 3.56137e-07 
862.793 3.56232e-07 
863.281 3.56326e-07 
863.77 3.56421e-07 
864.258 3.56516e-07 
864.746 3.56612e-07 
865.234 3.56707e-07 
865.723 3.56803e-07 
866.211 3.56899e-07 
866.699 3.56995e-07 
867.188 3.57091e-07 
867.676 3.57187e-07 
868.164 3.57284e-07 
868.652 3.5738e-07 
869.141 3.57477e-07 
869.629 3.57575e-07 
870.117 3.57672e-07 
870.605 3.5777e-07 
871.094 3.57868e-07 
871.582 3.57966e-07 
872.07 3.58064e-07 
872.559 3.58163e-07 
873.047 3.58262e-07 
873.535 3.5836e-07 
874.023 3.5846e-07 
874.512 3.58559e-07 
875 3.58659e-07 
875.488 3.58759e-07 
875.977 3.58859e-07 
876.465 3.5896e-07 
876.953 3.5906e-07 
877.441 3.59161e-07 
877.93 3.59262e-07 
878.418 3.59364e-07 
878.906 3.59465e-07 
879.395 3.59567e-07 
879.883 3.59669e-07 
880.371 3.59771e-07 
880.859 3.59873e-07 
881.348 3.59976e-07 
881.836 3.60079e-07 
882.324 3.60182e-07 
882.812 3.60284e-07 
883.301 3.60388e-07 
883.789 3.60491e-07 
884.277 3.60595e-07 
884.766 3.60699e-07 
885.254 3.60802e-07 
885.742 3.60906e-07 
886.23 3.61011e-07 
886.719 3.61115e-07 
887.207 3.6122e-07 
887.695 3.61324e-07 
888.184 3.61429e-07 
888.672 3.61534e-07 
889.16 3.6164e-07 
889.648 3.61745e-07 
890.137 3.6185e-07 
890.625 3.61957e-07 
891.113 3.62063e-07 
891.602 3.62169e-07 
892.09 3.62275e-07 
892.578 3.62382e-07 
893.066 3.62489e-07 
893.555 3.62596e-07 
894.043 3.62704e-07 
894.531 3.62812e-07 
895.02 3.6292e-07 
895.508 3.63028e-07 
895.996 3.63137e-07 
896.484 3.63246e-07 
896.973 3.63356e-07 
897.461 3.63466e-07 
897.949 3.63576e-07 
898.438 3.63686e-07 
898.926 3.63797e-07 
899.414 3.63908e-07 
899.902 3.6402e-07 
900.391 3.64132e-07 
900.879 3.64245e-07 
901.367 3.64358e-07 
901.855 3.64471e-07 
902.344 3.64585e-07 
902.832 3.64699e-07 
903.32 3.64814e-07 
903.809 3.64929e-07 
904.297 3.65044e-07 
904.785 3.6516e-07 
905.273 3.65276e-07 
905.762 3.65392e-07 
906.25 3.65509e-07 
906.738 3.65627e-07 
907.227 3.65744e-07 
907.715 3.65862e-07 
908.203 3.65981e-07 
908.691 3.66099e-07 
909.18 3.66218e-07 
909.668 3.66337e-07 
910.156 3.66457e-07 
910.645 3.66577e-07 
911.133 3.66697e-07 
911.621 3.66817e-07 
912.109 3.66938e-07 
912.598 3.67059e-07 
913.086 3.67181e-07 
913.574 3.67302e-07 
914.062 3.67424e-07 
914.551 3.67546e-07 
915.039 3.67668e-07 
915.527 3.6779e-07 
916.016 3.67913e-07 
916.504 3.68035e-07 
916.992 3.68158e-07 
917.48 3.68282e-07 
917.969 3.68405e-07 
918.457 3.68529e-07 
918.945 3.68653e-07 
919.434 3.68777e-07 
919.922 3.68902e-07 
920.41 3.69027e-07 
920.898 3.69151e-07 
921.387 3.69277e-07 
921.875 3.69402e-07 
922.363 3.69528e-07 
922.852 3.69654e-07 
923.34 3.69781e-07 
923.828 3.69908e-07 
924.316 3.70035e-07 
924.805 3.70162e-07 
925.293 3.7029e-07 
925.781 3.70418e-07 
926.27 3.70546e-07 
926.758 3.70675e-07 
927.246 3.70804e-07 
927.734 3.70933e-07 
928.223 3.71063e-07 
928.711 3.71193e-07 
929.199 3.71324e-07 
929.688 3.71455e-07 
930.176 3.71586e-07 
930.664 3.71717e-07 
931.152 3.71849e-07 
931.641 3.71982e-07 
932.129 3.72114e-07 
932.617 3.72247e-07 
933.105 3.7238e-07 
933.594 3.72513e-07 
934.082 3.72647e-07 
934.57 3.72781e-07 
935.059 3.72915e-07 
935.547 3.7305e-07 
936.035 3.73185e-07 
936.523 3.7332e-07 
937.012 3.73455e-07 
937.5 3.73591e-07 
937.988 3.73726e-07 
938.477 3.73863e-07 
938.965 3.73999e-07 
939.453 3.74136e-07 
939.941 3.74273e-07 
940.43 3.7441e-07 
940.918 3.74547e-07 
941.406 3.74685e-07 
941.895 3.74823e-07 
942.383 3.74961e-07 
942.871 3.75099e-07 
943.359 3.75238e-07 
943.848 3.75377e-07 
944.336 3.75517e-07 
944.824 3.75656e-07 
945.312 3.75796e-07 
945.801 3.75937e-07 
946.289 3.76078e-07 
946.777 3.76219e-07 
947.266 3.7636e-07 
947.754 3.76502e-07 
948.242 3.76645e-07 
948.73 3.76788e-07 
949.219 3.76931e-07 
949.707 3.77075e-07 
950.195 3.77219e-07 
950.684 3.77363e-07 
951.172 3.77508e-07 
951.66 3.77654e-07 
952.148 3.778e-07 
952.637 3.77946e-07 
953.125 3.78093e-07 
953.613 3.7824e-07 
954.102 3.78388e-07 
954.59 3.78537e-07 
955.078 3.78685e-07 
955.566 3.78834e-07 
956.055 3.78984e-07 
956.543 3.79134e-07 
957.031 3.79284e-07 
957.52 3.79435e-07 
958.008 3.79586e-07 
958.496 3.79738e-07 
958.984 3.7989e-07 
959.473 3.80042e-07 
959.961 3.80195e-07 
960.449 3.80348e-07 
960.938 3.80501e-07 
961.426 3.80655e-07 
961.914 3.80809e-07 
962.402 3.80964e-07 
962.891 3.81119e-07 
963.379 3.81274e-07 
963.867 3.81429e-07 
964.355 3.81585e-07 
964.844 3.81741e-07 
965.332 3.81898e-07 
965.82 3.82055e-07 
966.309 3.82213e-07 
966.797 3.8237e-07 
967.285 3.82529e-07 
967.773 3.82687e-07 
968.262 3.82846e-07 
968.75 3.83006e-07 
969.238 3.83166e-07 
