#energy geo_1 
500 4.27554e-07 
500.488 4.25073e-07 
500.977 4.22773e-07 
501.465 4.20657e-07 
501.953 4.18739e-07 
502.441 4.17048e-07 
502.93 4.15628e-07 
503.418 4.14537e-07 
503.906 4.1386e-07 
504.395 4.13705e-07 
504.883 4.14213e-07 
505.371 4.15556e-07 
505.859 4.17931e-07 
506.348 4.21558e-07 
506.836 4.26664e-07 
507.324 4.33491e-07 
507.812 4.42294e-07 
508.301 4.5337e-07 
508.789 4.67084e-07 
509.277 4.83897e-07 
509.766 5.04407e-07 
510.254 5.29377e-07 
510.742 5.59787e-07 
511.23 5.96853e-07 
511.719 6.42057e-07 
512.207 6.97098e-07 
512.695 7.63725e-07 
513.184 8.433e-07 
513.672 9.35844e-07 
514.16 1.03844e-06 
514.648 1.14308e-06 
515.137 1.2353e-06 
515.625 1.2962e-06 
516.113 1.30982e-06 
516.602 1.2721e-06 
517.09 1.19357e-06 
517.578 1.09274e-06 
518.066 9.86975e-07 
518.555 8.8769e-07 
519.043 8.00246e-07 
519.531 7.25946e-07 
520.02 6.63975e-07 
520.508 6.12707e-07 
520.996 5.70364e-07 
521.484 5.35316e-07 
521.973 5.0618e-07 
522.461 4.81817e-07 
522.949 4.61321e-07 
523.438 4.43965e-07 
523.926 4.29175e-07 
524.414 4.16491e-07 
524.902 4.05551e-07 
525.391 3.96057e-07 
525.879 3.87775e-07 
526.367 3.80513e-07 
526.855 3.74115e-07 
527.344 3.68453e-07 
527.832 3.63421e-07 
528.32 3.58931e-07 
528.809 3.5491e-07 
529.297 3.51296e-07 
529.785 3.48038e-07 
530.273 3.4509e-07 
530.762 3.42417e-07 
531.25 3.39985e-07 
531.738 3.37767e-07 
532.227 3.35741e-07 
532.715 3.33884e-07 
533.203 3.32179e-07 
533.691 3.3061e-07 
534.18 3.29164e-07 
534.668 3.2783e-07 
535.156 3.26595e-07 
535.645 3.25451e-07 
536.133 3.2439e-07 
536.621 3.23404e-07 
537.109 3.22487e-07 
537.598 3.21632e-07 
538.086 3.20836e-07 
538.574 3.20092e-07 
539.062 3.19396e-07 
539.551 3.18746e-07 
540.039 3.18137e-07 
540.527 3.17566e-07 
541.016 3.1703e-07 
541.504 3.16528e-07 
541.992 3.16056e-07 
542.48 3.15612e-07 
542.969 3.15194e-07 
543.457 3.14802e-07 
543.945 3.14432e-07 
544.434 3.14083e-07 
544.922 3.13755e-07 
545.41 3.13446e-07 
545.898 3.13154e-07 
546.387 3.12878e-07 
546.875 3.12619e-07 
547.363 3.12374e-07 
547.852 3.12142e-07 
548.34 3.11924e-07 
548.828 3.11717e-07 
549.316 3.11523e-07 
549.805 3.11339e-07 
550.293 3.11166e-07 
550.781 3.11002e-07 
551.27 3.10848e-07 
551.758 3.10702e-07 
552.246 3.10565e-07 
552.734 3.10435e-07 
553.223 3.10313e-07 
553.711 3.10199e-07 
554.199 3.10091e-07 
554.688 3.09989e-07 
555.176 3.09894e-07 
555.664 3.09804e-07 
556.152 3.0972e-07 
556.641 3.09642e-07 
557.129 3.09569e-07 
557.617 3.095e-07 
558.105 3.09436e-07 
558.594 3.09377e-07 
559.082 3.09322e-07 
559.57 3.09271e-07 
560.059 3.09225e-07 
560.547 3.09182e-07 
561.035 3.09142e-07 
561.523 3.09107e-07 
562.012 3.09075e-07 
562.5 3.09046e-07 
562.988 3.0902e-07 
563.477 3.08997e-07 
563.965 3.08977e-07 
564.453 3.0896e-07 
564.941 3.08946e-07 
565.43 3.08934e-07 
565.918 3.08925e-07 
566.406 3.08918e-07 
566.895 3.08914e-07 
567.383 3.08912e-07 
567.871 3.08912e-07 
568.359 3.08914e-07 
568.848 3.08919e-07 
569.336 3.08926e-07 
569.824 3.08934e-07 
570.312 3.08944e-07 
570.801 3.08956e-07 
571.289 3.0897e-07 
571.777 3.08986e-07 
572.266 3.09003e-07 
572.754 3.09022e-07 
573.242 3.09042e-07 
573.73 3.09064e-07 
574.219 3.09088e-07 
574.707 3.09112e-07 
575.195 3.09138e-07 
575.684 3.09166e-07 
576.172 3.09194e-07 
576.66 3.09224e-07 
577.148 3.09255e-07 
577.637 3.09287e-07 
578.125 3.0932e-07 
578.613 3.09355e-07 
579.102 3.0939e-07 
579.59 3.09426e-07 
580.078 3.09464e-07 
580.566 3.09502e-07 
581.055 3.09541e-07 
581.543 3.09581e-07 
582.031 3.09622e-07 
582.52 3.09664e-07 
583.008 3.09707e-07 
583.496 3.09751e-07 
583.984 3.09795e-07 
584.473 3.0984e-07 
584.961 3.09886e-07 
585.449 3.09933e-07 
585.938 3.0998e-07 
586.426 3.10029e-07 
586.914 3.10077e-07 
587.402 3.10127e-07 
587.891 3.10178e-07 
588.379 3.10229e-07 
588.867 3.10281e-07 
589.355 3.10333e-07 
589.844 3.10386e-07 
590.332 3.1044e-07 
590.82 3.10495e-07 
591.309 3.1055e-07 
591.797 3.10606e-07 
592.285 3.10662e-07 
592.773 3.10719e-07 
593.262 3.10777e-07 
593.75 3.10835e-07 
594.238 3.10894e-07 
594.727 3.10954e-07 
595.215 3.11014e-07 
595.703 3.11075e-07 
596.191 3.11136e-07 
596.68 3.11198e-07 
597.168 3.11261e-07 
597.656 3.11324e-07 
598.145 3.11387e-07 
598.633 3.11451e-07 
599.121 3.11516e-07 
599.609 3.11581e-07 
600.098 3.11647e-07 
600.586 3.11713e-07 
601.074 3.1178e-07 
601.562 3.11847e-07 
602.051 3.11914e-07 
602.539 3.11982e-07 
603.027 3.12051e-07 
603.516 3.12119e-07 
604.004 3.12189e-07 
604.492 3.12258e-07 
604.98 3.12328e-07 
605.469 3.12398e-07 
605.957 3.12469e-07 
606.445 3.1254e-07 
606.934 3.12612e-07 
607.422 3.12683e-07 
607.91 3.12756e-07 
608.398 3.12828e-07 
608.887 3.12901e-07 
609.375 3.12974e-07 
609.863 3.13047e-07 
610.352 3.13121e-07 
610.84 3.13195e-07 
611.328 3.13269e-07 
611.816 3.13344e-07 
612.305 3.13418e-07 
612.793 3.13494e-07 
613.281 3.13569e-07 
613.77 3.13645e-07 
614.258 3.13721e-07 
614.746 3.13798e-07 
615.234 3.13875e-07 
615.723 3.13952e-07 
616.211 3.1403e-07 
616.699 3.14107e-07 
617.188 3.14186e-07 
617.676 3.14264e-07 
618.164 3.14343e-07 
618.652 3.14423e-07 
619.141 3.14502e-07 
619.629 3.14582e-07 
620.117 3.14663e-07 
620.605 3.14743e-07 
621.094 3.14824e-07 
621.582 3.14906e-07 
622.07 3.14988e-07 
622.559 3.1507e-07 
623.047 3.15152e-07 
623.535 3.15235e-07 
624.023 3.15319e-07 
624.512 3.15402e-07 
625 3.15486e-07 
625.488 3.1557e-07 
625.977 3.15655e-07 
626.465 3.1574e-07 
626.953 3.15825e-07 
627.441 3.15911e-07 
627.93 3.15997e-07 
628.418 3.16083e-07 
628.906 3.16169e-07 
629.395 3.16256e-07 
629.883 3.16343e-07 
630.371 3.1643e-07 
630.859 3.16517e-07 
631.348 3.16605e-07 
631.836 3.16693e-07 
632.324 3.16781e-07 
632.812 3.16869e-07 
633.301 3.16958e-07 
633.789 3.17047e-07 
634.277 3.17136e-07 
634.766 3.17225e-07 
635.254 3.17315e-07 
635.742 3.17404e-07 
636.23 3.17494e-07 
636.719 3.17585e-07 
637.207 3.17675e-07 
637.695 3.17766e-07 
638.184 3.17856e-07 
638.672 3.17948e-07 
639.16 3.18039e-07 
639.648 3.18131e-07 
640.137 3.18222e-07 
640.625 3.18315e-07 
641.113 3.18407e-07 
641.602 3.185e-07 
642.09 3.18593e-07 
642.578 3.18686e-07 
643.066 3.1878e-07 
643.555 3.18874e-07 
644.043 3.18968e-07 
644.531 3.19063e-07 
645.02 3.19158e-07 
645.508 3.19253e-07 
645.996 3.19349e-07 
646.484 3.19444e-07 
646.973 3.19541e-07 
647.461 3.19637e-07 
647.949 3.19734e-07 
648.438 3.19831e-07 
648.926 3.19929e-07 
649.414 3.20027e-07 
649.902 3.20125e-07 
650.391 3.20224e-07 
650.879 3.20323e-07 
651.367 3.20422e-07 
651.855 3.20521e-07 
652.344 3.20621e-07 
652.832 3.20721e-07 
653.32 3.20821e-07 
653.809 3.20922e-07 
654.297 3.21023e-07 
654.785 3.21124e-07 
655.273 3.21225e-07 
655.762 3.21327e-07 
656.25 3.21428e-07 
656.738 3.2153e-07 
657.227 3.21632e-07 
657.715 3.21735e-07 
658.203 3.21837e-07 
658.691 3.2194e-07 
659.18 3.22043e-07 
659.668 3.22146e-07 
660.156 3.2225e-07 
660.645 3.22353e-07 
661.133 3.22457e-07 
661.621 3.22561e-07 
662.109 3.22665e-07 
662.598 3.2277e-07 
663.086 3.22875e-07 
663.574 3.2298e-07 
664.062 3.23085e-07 
664.551 3.23191e-07 
665.039 3.23297e-07 
665.527 3.23403e-07 
666.016 3.23509e-07 
666.504 3.23616e-07 
666.992 3.23723e-07 
667.48 3.2383e-07 
667.969 3.23938e-07 
668.457 3.24046e-07 
668.945 3.24155e-07 
669.434 3.24264e-07 
669.922 3.24373e-07 
670.41 3.24483e-07 
670.898 3.24593e-07 
671.387 3.24703e-07 
671.875 3.24814e-07 
672.363 3.24925e-07 
672.852 3.25036e-07 
673.34 3.25148e-07 
673.828 3.2526e-07 
674.316 3.25373e-07 
674.805 3.25486e-07 
675.293 3.25599e-07 
675.781 3.25712e-07 
676.27 3.25826e-07 
676.758 3.25941e-07 
677.246 3.26055e-07 
677.734 3.2617e-07 
678.223 3.26285e-07 
678.711 3.264e-07 
679.199 3.26516e-07 
679.688 3.26631e-07 
680.176 3.26747e-07 
680.664 3.26864e-07 
681.152 3.2698e-07 
681.641 3.27097e-07 
682.129 3.27214e-07 
682.617 3.27331e-07 
683.105 3.27449e-07 
683.594 3.27567e-07 
684.082 3.27684e-07 
684.57 3.27803e-07 
685.059 3.27921e-07 
685.547 3.2804e-07 
686.035 3.28159e-07 
686.523 3.28278e-07 
687.012 3.28398e-07 
687.5 3.28518e-07 
687.988 3.28638e-07 
688.477 3.28759e-07 
688.965 3.2888e-07 
689.453 3.29001e-07 
689.941 3.29123e-07 
690.43 3.29245e-07 
690.918 3.29368e-07 
691.406 3.29491e-07 
691.895 3.29615e-07 
692.383 3.29738e-07 
692.871 3.29863e-07 
693.359 3.29987e-07 
693.848 3.30113e-07 
694.336 3.30238e-07 
694.824 3.30364e-07 
695.312 3.30491e-07 
695.801 3.30618e-07 
696.289 3.30745e-07 
696.777 3.30872e-07 
697.266 3.31e-07 
697.754 3.31129e-07 
698.242 3.31258e-07 
698.73 3.31387e-07 
699.219 3.31516e-07 
699.707 3.31646e-07 
700.195 3.31776e-07 
700.684 3.31907e-07 
701.172 3.32038e-07 
701.66 3.32169e-07 
702.148 3.323e-07 
702.637 3.32432e-07 
703.125 3.32564e-07 
703.613 3.32696e-07 
704.102 3.32828e-07 
704.59 3.32961e-07 
705.078 3.33094e-07 
705.566 3.33227e-07 
706.055 3.33361e-07 
706.543 3.33495e-07 
707.031 3.33629e-07 
707.52 3.33764e-07 
708.008 3.33899e-07 
708.496 3.34034e-07 
708.984 3.3417e-07 
709.473 3.34306e-07 
709.961 3.34443e-07 
710.449 3.3458e-07 
710.938 3.34717e-07 
711.426 3.34855e-07 
711.914 3.34994e-07 
712.402 3.35132e-07 
712.891 3.35272e-07 
713.379 3.35412e-07 
713.867 3.35552e-07 
714.355 3.35693e-07 
714.844 3.35835e-07 
715.332 3.35977e-07 
715.82 3.36119e-07 
716.309 3.36262e-07 
716.797 3.36406e-07 
717.285 3.3655e-07 
717.773 3.36694e-07 
718.262 3.36839e-07 
718.75 3.36985e-07 
719.238 3.3713e-07 
719.727 3.37277e-07 
720.215 3.37423e-07 
720.703 3.3757e-07 
721.191 3.37718e-07 
721.68 3.37866e-07 
722.168 3.38014e-07 
722.656 3.38162e-07 
723.145 3.38311e-07 
723.633 3.3846e-07 
724.121 3.3861e-07 
724.609 3.38759e-07 
725.098 3.3891e-07 
725.586 3.3906e-07 
726.074 3.39211e-07 
726.562 3.39362e-07 
727.051 3.39514e-07 
727.539 3.39666e-07 
728.027 3.39818e-07 
728.516 3.39971e-07 
729.004 3.40124e-07 
729.492 3.40278e-07 
729.98 3.40433e-07 
730.469 3.40588e-07 
730.957 3.40743e-07 
731.445 3.40899e-07 
731.934 3.41056e-07 
732.422 3.41213e-07 
732.91 3.4137e-07 
733.398 3.41529e-07 
733.887 3.41688e-07 
734.375 3.41848e-07 
734.863 3.42008e-07 
735.352 3.42169e-07 
735.84 3.42331e-07 
736.328 3.42493e-07 
736.816 3.42656e-07 
737.305 3.4282e-07 
737.793 3.42984e-07 
738.281 3.43148e-07 
738.77 3.43314e-07 
739.258 3.43479e-07 
739.746 3.43646e-07 
740.234 3.43812e-07 
740.723 3.4398e-07 
741.211 3.44147e-07 
741.699 3.44316e-07 
742.188 3.44484e-07 
742.676 3.44653e-07 
743.164 3.44823e-07 
743.652 3.44993e-07 
744.141 3.45163e-07 
744.629 3.45334e-07 
745.117 3.45505e-07 
745.605 3.45677e-07 
746.094 3.45849e-07 
746.582 3.46022e-07 
747.07 3.46195e-07 
747.559 3.46369e-07 
748.047 3.46543e-07 
748.535 3.46718e-07 
749.023 3.46894e-07 
749.512 3.4707e-07 
750 3.47247e-07 
750.488 3.47425e-07 
750.977 3.47604e-07 
751.465 3.47783e-07 
751.953 3.47963e-07 
752.441 3.48144e-07 
752.93 3.48325e-07 
753.418 3.48508e-07 
753.906 3.48691e-07 
754.395 3.48875e-07 
754.883 3.4906e-07 
755.371 3.49245e-07 
755.859 3.49431e-07 
756.348 3.49618e-07 
756.836 3.49806e-07 
757.324 3.49995e-07 
757.812 3.50184e-07 
758.301 3.50373e-07 
758.789 3.50564e-07 
759.277 3.50755e-07 
759.766 3.50946e-07 
760.254 3.51138e-07 
760.742 3.51331e-07 
761.23 3.51525e-07 
761.719 3.51719e-07 
762.207 3.51913e-07 
762.695 3.52109e-07 
763.184 3.52305e-07 
763.672 3.52501e-07 
764.16 3.52699e-07 
764.648 3.52897e-07 
765.137 3.53096e-07 
765.625 3.53296e-07 
766.113 3.53496e-07 
766.602 3.53698e-07 
767.09 3.53901e-07 
767.578 3.54104e-07 
768.066 3.54309e-07 
768.555 3.54514e-07 
769.043 3.54721e-07 
769.531 3.54928e-07 
770.02 3.55137e-07 
770.508 3.55346e-07 
770.996 3.55557e-07 
771.484 3.55768e-07 
771.973 3.55981e-07 
772.461 3.56194e-07 
772.949 3.56408e-07 
773.438 3.56623e-07 
773.926 3.56839e-07 
774.414 3.57055e-07 
774.902 3.57272e-07 
775.391 3.57489e-07 
775.879 3.57707e-07 
776.367 3.57926e-07 
776.855 3.58145e-07 
777.344 3.58364e-07 
777.832 3.58584e-07 
778.32 3.58805e-07 
778.809 3.59026e-07 
779.297 3.59247e-07 
779.785 3.59469e-07 
780.273 3.59692e-07 
780.762 3.59916e-07 
781.25 3.6014e-07 
781.738 3.60365e-07 
782.227 3.60591e-07 
782.715 3.60818e-07 
783.203 3.61046e-07 
783.691 3.61276e-07 
784.18 3.61507e-07 
784.668 3.61739e-07 
785.156 3.61973e-07 
785.645 3.62209e-07 
786.133 3.62446e-07 
786.621 3.62685e-07 
787.109 3.62926e-07 
787.598 3.63169e-07 
788.086 3.63414e-07 
788.574 3.6366e-07 
789.062 3.63909e-07 
789.551 3.64159e-07 
790.039 3.64412e-07 
790.527 3.64667e-07 
791.016 3.64923e-07 
791.504 3.65181e-07 
791.992 3.65441e-07 
792.48 3.65703e-07 
792.969 3.65967e-07 
793.457 3.66232e-07 
793.945 3.66499e-07 
794.434 3.66768e-07 
794.922 3.67039e-07 
795.41 3.67311e-07 
795.898 3.67585e-07 
796.387 3.6786e-07 
796.875 3.68137e-07 
797.363 3.68415e-07 
797.852 3.68695e-07 
798.34 3.68975e-07 
798.828 3.69257e-07 
799.316 3.69541e-07 
799.805 3.69825e-07 
800.293 3.7011e-07 
800.781 3.70396e-07 
801.27 3.70682e-07 
801.758 3.70969e-07 
802.246 3.71256e-07 
802.734 3.71543e-07 
803.223 3.7183e-07 
803.711 3.72117e-07 
804.199 3.72404e-07 
804.688 3.7269e-07 
805.176 3.72976e-07 
805.664 3.73261e-07 
806.152 3.73546e-07 
806.641 3.7383e-07 
807.129 3.74113e-07 
807.617 3.74397e-07 
808.105 3.7468e-07 
808.594 3.74963e-07 
809.082 3.75246e-07 
809.57 3.75529e-07 
810.059 3.75814e-07 
810.547 3.76099e-07 
811.035 3.76386e-07 
811.523 3.76675e-07 
812.012 3.76967e-07 
812.5 3.77261e-07 
812.988 3.77558e-07 
813.477 3.7786e-07 
813.965 3.78165e-07 
814.453 3.78475e-07 
814.941 3.7879e-07 
815.43 3.7911e-07 
815.918 3.79436e-07 
816.406 3.79768e-07 
816.895 3.80106e-07 
817.383 3.80451e-07 
817.871 3.80802e-07 
818.359 3.81161e-07 
818.848 3.81526e-07 
819.336 3.81897e-07 
819.824 3.82276e-07 
820.312 3.82661e-07 
820.801 3.83052e-07 
821.289 3.8345e-07 
821.777 3.83852e-07 
822.266 3.84261e-07 
822.754 3.84673e-07 
823.242 3.8509e-07 
823.73 3.8551e-07 
824.219 3.85933e-07 
824.707 3.86357e-07 
825.195 3.86782e-07 
825.684 3.87207e-07 
826.172 3.87631e-07 
826.66 3.88053e-07 
827.148 3.88473e-07 
827.637 3.8889e-07 
828.125 3.89303e-07 
828.613 3.89712e-07 
829.102 3.90118e-07 
829.59 3.9052e-07 
830.078 3.90917e-07 
830.566 3.91312e-07 
831.055 3.91704e-07 
831.543 3.92095e-07 
832.031 3.92486e-07 
832.52 3.92878e-07 
833.008 3.93272e-07 
833.496 3.93671e-07 
833.984 3.94076e-07 
834.473 3.94488e-07 
834.961 3.94908e-07 
835.449 3.95338e-07 
835.938 3.9578e-07 
836.426 3.96233e-07 
836.914 3.96699e-07 
837.402 3.97177e-07 
837.891 3.97667e-07 
838.379 3.98169e-07 
838.867 3.98681e-07 
839.355 3.99204e-07 
839.844 3.99735e-07 
840.332 4.00274e-07 
840.82 4.0082e-07 
841.309 4.01371e-07 
841.797 4.01926e-07 
842.285 4.02485e-07 
842.773 4.03049e-07 
843.262 4.03617e-07 
843.75 4.04192e-07 
844.238 4.04775e-07 
844.727 4.05367e-07 
845.215 4.05965e-07 
845.703 4.06566e-07 
846.191 4.07173e-07 
846.68 4.07795e-07 
847.168 4.08436e-07 
847.656 4.09088e-07 
848.145 4.09748e-07 
848.633 4.10422e-07 
849.121 4.11109e-07 
849.609 4.11805e-07 
850.098 4.12519e-07 
850.586 4.13246e-07 
851.074 4.13981e-07 
851.562 4.1473e-07 
852.051 4.15494e-07 
852.539 4.16263e-07 
853.027 4.17034e-07 
853.516 4.17814e-07 
854.004 4.18601e-07 
854.492 4.19386e-07 
854.98 4.20167e-07 
855.469 4.20952e-07 
855.957 4.21744e-07 
856.445 4.22534e-07 
856.934 4.23315e-07 
857.422 4.24093e-07 
857.91 4.24876e-07 
858.398 4.25655e-07 
858.887 4.2642e-07 
859.375 4.27172e-07 
859.863 4.27927e-07 
860.352 4.28689e-07 
860.84 4.29454e-07 
861.328 4.30212e-07 
861.816 4.30967e-07 
862.305 4.31732e-07 
862.793 4.3251e-07 
863.281 4.33292e-07 
863.77 4.34069e-07 
864.258 4.34844e-07 
864.746 4.35631e-07 
865.234 4.36435e-07 
865.723 4.37246e-07 
866.211 4.38055e-07 
866.699 4.38861e-07 
867.188 4.3968e-07 
867.676 4.4052e-07 
868.164 4.41379e-07 
868.652 4.42244e-07 
869.141 4.43109e-07 
869.629 4.43984e-07 
870.117 4.4488e-07 
870.605 4.45798e-07 
871.094 4.46728e-07 
871.582 4.47658e-07 
872.07 4.48593e-07 
872.559 4.49544e-07 
873.047 4.50521e-07 
873.535 4.5152e-07 
874.023 4.52528e-07 
874.512 4.53538e-07 
875 4.54557e-07 
875.488 4.55594e-07 
875.977 4.56652e-07 
876.465 4.57723e-07 
876.953 4.58796e-07 
877.441 4.59873e-07 
877.93 4.60968e-07 
878.418 4.62093e-07 
878.906 4.6325e-07 
879.395 4.64431e-07 
879.883 4.65629e-07 
880.371 4.66852e-07 
880.859 4.68111e-07 
881.348 4.6941e-07 
881.836 4.70736e-07 
882.324 4.72071e-07 
882.812 4.73408e-07 
883.301 4.74755e-07 
883.789 4.76127e-07 
884.277 4.77533e-07 
884.766 4.78971e-07 
885.254 4.80438e-07 
885.742 4.81938e-07 
886.23 4.83483e-07 
886.719 4.85082e-07 
887.207 4.86725e-07 
887.695 4.88387e-07 
888.184 4.90053e-07 
888.672 4.91721e-07 
889.16 4.93399e-07 
889.648 4.95087e-07 
890.137 4.96776e-07 
890.625 4.98447e-07 
891.113 5.00092e-07 
891.602 5.0171e-07 
892.09 5.03295e-07 
892.578 5.04828e-07 
893.066 5.06277e-07 
893.555 5.07613e-07 
894.043 5.08813e-07 
894.531 5.09864e-07 
895.02 5.10764e-07 
895.508 5.1153e-07 
895.996 5.12231e-07 
896.484 5.12975e-07 
896.973 5.13862e-07 
897.461 5.1491e-07 
897.949 5.1606e-07 
898.438 5.17241e-07 
898.926 5.18413e-07 
899.414 5.19584e-07 
899.902 5.20768e-07 
900.391 5.21947e-07 
900.879 5.23082e-07 
901.367 5.2416e-07 
901.855 5.25216e-07 
902.344 5.26311e-07 
902.832 5.27493e-07 
903.32 5.28793e-07 
903.809 5.30255e-07 
904.297 5.31955e-07 
904.785 5.33942e-07 
905.273 5.36218e-07 
905.762 5.3876e-07 
906.25 5.4154e-07 
906.738 5.44554e-07 
907.227 5.47821e-07 
907.715 5.51352e-07 
908.203 5.55177e-07 
908.691 5.59362e-07 
909.18 5.63938e-07 
909.668 5.68905e-07 
910.156 5.74272e-07 
910.645 5.80079e-07 
911.133 5.86386e-07 
911.621 5.9322e-07 
912.109 6.00506e-07 
912.598 6.08135e-07 
913.086 6.16044e-07 
913.574 6.24213e-07 
914.062 6.32646e-07 
914.551 6.41365e-07 
915.039 6.50332e-07 
915.527 6.59409e-07 
916.016 6.68381e-07 
916.504 6.77027e-07 
916.992 6.85092e-07 
917.48 6.92251e-07 
917.969 6.98247e-07 
918.457 7.02888e-07 
918.945 7.0596e-07 
919.434 7.07303e-07 
919.922 7.06881e-07 
920.41 7.04766e-07 
920.898 7.01065e-07 
921.387 6.95853e-07 
921.875 6.89215e-07 
922.363 6.81302e-07 
922.852 6.72118e-07 
923.34 6.61474e-07 
923.828 6.49407e-07 
924.316 6.36239e-07 
924.805 6.22347e-07 
925.293 6.08082e-07 
925.781 5.93976e-07 
926.27 5.80896e-07 
926.758 5.69595e-07 
927.246 5.60249e-07 
927.734 5.52268e-07 
928.223 5.44416e-07 
928.711 5.35647e-07 
929.199 5.25822e-07 
929.688 5.15707e-07 
930.176 5.05828e-07 
930.664 4.95692e-07 
931.152 4.84506e-07 
931.641 4.72336e-07 
932.129 4.59897e-07 
932.617 4.47159e-07 
933.105 4.34377e-07 
933.594 4.23491e-07 
934.082 4.16758e-07 
934.57 4.15002e-07 
935.059 4.17509e-07 
935.547 4.23298e-07 
936.035 4.3197e-07 
936.523 4.43621e-07 
937.012 4.58735e-07 
937.5 4.78199e-07 
937.988 5.03422e-07 
938.477 5.36579e-07 
938.965 5.81087e-07 
939.453 6.42494e-07 
939.941 7.30228e-07 
940.43 8.61288e-07 
940.918 1.06866e-06 
941.406 1.42224e-06 
941.895 2.0864e-06 
942.383 3.47918e-06 
942.871 6.4297e-06 
943.359 9.57239e-06 
943.848 8.48403e-06 
944.336 4.95148e-06 
944.824 2.76227e-06 
945.312 1.75159e-06 
945.801 1.24755e-06 
946.289 9.67451e-07 
946.777 7.97483e-07 
947.266 6.87126e-07 
947.754 6.1161e-07 
948.242 5.57747e-07 
948.73 5.18017e-07 
949.219 4.87894e-07 
949.707 4.64523e-07 
950.195 4.46035e-07 
950.684 4.31163e-07 
951.172 4.19027e-07 
951.66 4.08997e-07 
952.148 4.00615e-07 
952.637 3.93543e-07 
953.125 3.87522e-07 
953.613 3.82357e-07 
954.102 3.77894e-07 
954.59 3.74013e-07 
955.078 3.7062e-07 
955.566 3.67636e-07 
956.055 3.65001e-07 
956.543 3.62663e-07 
957.031 3.6058e-07 
957.52 3.58719e-07 
958.008 3.57049e-07 
958.496 3.55547e-07 
958.984 3.54192e-07 
959.473 3.52965e-07 
959.961 3.51853e-07 
960.449 3.50843e-07 
960.938 3.49923e-07 
961.426 3.49084e-07 
961.914 3.48317e-07 
962.402 3.47615e-07 
962.891 3.46972e-07 
963.379 3.46382e-07 
963.867 3.45841e-07 
964.355 3.45342e-07 
964.844 3.44884e-07 
965.332 3.44462e-07 
965.82 3.44073e-07 
966.309 3.43715e-07 
966.797 3.43385e-07 
967.285 3.4308e-07 
967.773 3.42799e-07 
968.262 3.4254e-07 
968.75 3.42301e-07 
969.238 3.42081e-07 
