#energy geo_1 
500 3.84816e-07 
500.488 3.83454e-07 
500.977 3.82249e-07 
501.465 3.81208e-07 
501.953 3.80346e-07 
502.441 3.79688e-07 
502.93 3.79271e-07 
503.418 3.79144e-07 
503.906 3.79375e-07 
504.395 3.8005e-07 
504.883 3.8128e-07 
505.371 3.83199e-07 
505.859 3.85965e-07 
506.348 3.89752e-07 
506.836 3.94748e-07 
507.324 4.01152e-07 
507.812 4.09186e-07 
508.301 4.19111e-07 
508.789 4.31244e-07 
509.277 4.45992e-07 
509.766 4.63873e-07 
510.254 4.8555e-07 
510.742 5.11869e-07 
511.23 5.43876e-07 
511.719 5.82853e-07 
512.207 6.3026e-07 
512.695 6.87604e-07 
513.184 7.56046e-07 
513.672 8.35617e-07 
514.16 9.23808e-07 
514.648 1.01375e-06 
515.137 1.09302e-06 
515.625 1.14539e-06 
516.113 1.15715e-06 
516.602 1.12482e-06 
517.09 1.05745e-06 
517.578 9.70916e-07 
518.066 8.80148e-07 
518.555 7.9494e-07 
519.043 7.199e-07 
519.531 6.56137e-07 
520.02 6.02962e-07 
520.508 5.58974e-07 
520.996 5.22648e-07 
521.484 4.92587e-07 
521.973 4.67596e-07 
522.461 4.46704e-07 
522.949 4.2913e-07 
523.438 4.14253e-07 
523.926 4.01577e-07 
524.414 3.90709e-07 
524.902 3.81334e-07 
525.391 3.73202e-07 
525.879 3.6611e-07 
526.367 3.59892e-07 
526.855 3.54416e-07 
527.344 3.49571e-07 
527.832 3.45267e-07 
528.32 3.41426e-07 
528.809 3.37987e-07 
529.297 3.34898e-07 
529.785 3.32113e-07 
530.273 3.29594e-07 
530.762 3.2731e-07 
531.25 3.25234e-07 
531.738 3.2334e-07 
532.227 3.2161e-07 
532.715 3.20026e-07 
533.203 3.18571e-07 
533.691 3.17233e-07 
534.18 3.16e-07 
534.668 3.14862e-07 
535.156 3.1381e-07 
535.645 3.12835e-07 
536.133 3.11931e-07 
536.621 3.11092e-07 
537.109 3.1031e-07 
537.598 3.09583e-07 
538.086 3.08905e-07 
538.574 3.08272e-07 
539.062 3.0768e-07 
539.551 3.07127e-07 
540.039 3.06609e-07 
540.527 3.06123e-07 
541.016 3.05668e-07 
541.504 3.0524e-07 
541.992 3.04839e-07 
542.48 3.04461e-07 
542.969 3.04106e-07 
543.457 3.03773e-07 
543.945 3.03458e-07 
544.434 3.03162e-07 
544.922 3.02883e-07 
545.41 3.0262e-07 
545.898 3.02372e-07 
546.387 3.02138e-07 
546.875 3.01917e-07 
547.363 3.01708e-07 
547.852 3.01511e-07 
548.34 3.01325e-07 
548.828 3.0115e-07 
549.316 3.00984e-07 
549.805 3.00828e-07 
550.293 3.0068e-07 
550.781 3.00541e-07 
551.27 3.00409e-07 
551.758 3.00285e-07 
552.246 3.00168e-07 
552.734 3.00057e-07 
553.223 2.99953e-07 
553.711 2.99855e-07 
554.199 2.99762e-07 
554.688 2.99675e-07 
555.176 2.99594e-07 
555.664 2.99517e-07 
556.152 2.99445e-07 
556.641 2.99377e-07 
557.129 2.99314e-07 
557.617 2.99255e-07 
558.105 2.992e-07 
558.594 2.99149e-07 
559.082 2.99101e-07 
559.57 2.99057e-07 
560.059 2.99016e-07 
560.547 2.98979e-07 
561.035 2.98944e-07 
561.523 2.98913e-07 
562.012 2.98884e-07 
562.5 2.98858e-07 
562.988 2.98834e-07 
563.477 2.98814e-07 
563.965 2.98795e-07 
564.453 2.98779e-07 
564.941 2.98766e-07 
565.43 2.98754e-07 
565.918 2.98745e-07 
566.406 2.98737e-07 
566.895 2.98732e-07 
567.383 2.98728e-07 
567.871 2.98727e-07 
568.359 2.98727e-07 
568.848 2.98729e-07 
569.336 2.98732e-07 
569.824 2.98737e-07 
570.312 2.98744e-07 
570.801 2.98752e-07 
571.289 2.98762e-07 
571.777 2.98773e-07 
572.266 2.98785e-07 
572.754 2.98799e-07 
573.242 2.98814e-07 
573.73 2.9883e-07 
574.219 2.98847e-07 
574.707 2.98865e-07 
575.195 2.98885e-07 
575.684 2.98906e-07 
576.172 2.98927e-07 
576.66 2.9895e-07 
577.148 2.98973e-07 
577.637 2.98998e-07 
578.125 2.99023e-07 
578.613 2.9905e-07 
579.102 2.99077e-07 
579.59 2.99105e-07 
580.078 2.99133e-07 
580.566 2.99163e-07 
581.055 2.99193e-07 
581.543 2.99224e-07 
582.031 2.99256e-07 
582.52 2.99289e-07 
583.008 2.99322e-07 
583.496 2.99356e-07 
583.984 2.9939e-07 
584.473 2.99425e-07 
584.961 2.99461e-07 
585.449 2.99498e-07 
585.938 2.99534e-07 
586.426 2.99572e-07 
586.914 2.9961e-07 
587.402 2.99649e-07 
587.891 2.99689e-07 
588.379 2.99728e-07 
588.867 2.99769e-07 
589.355 2.9981e-07 
589.844 2.99851e-07 
590.332 2.99893e-07 
590.82 2.99936e-07 
591.309 2.99979e-07 
591.797 3.00023e-07 
592.285 3.00067e-07 
592.773 3.00111e-07 
593.262 3.00157e-07 
593.75 3.00202e-07 
594.238 3.00248e-07 
594.727 3.00294e-07 
595.215 3.00342e-07 
595.703 3.00389e-07 
596.191 3.00437e-07 
596.68 3.00485e-07 
597.168 3.00534e-07 
597.656 3.00583e-07 
598.145 3.00633e-07 
598.633 3.00683e-07 
599.121 3.00733e-07 
599.609 3.00784e-07 
600.098 3.00835e-07 
600.586 3.00886e-07 
601.074 3.00938e-07 
601.562 3.0099e-07 
602.051 3.01043e-07 
602.539 3.01096e-07 
603.027 3.01149e-07 
603.516 3.01203e-07 
604.004 3.01257e-07 
604.492 3.01311e-07 
604.98 3.01365e-07 
605.469 3.0142e-07 
605.957 3.01475e-07 
606.445 3.0153e-07 
606.934 3.01586e-07 
607.422 3.01641e-07 
607.91 3.01698e-07 
608.398 3.01754e-07 
608.887 3.0181e-07 
609.375 3.01867e-07 
609.863 3.01924e-07 
610.352 3.01981e-07 
610.84 3.02039e-07 
611.328 3.02097e-07 
611.816 3.02155e-07 
612.305 3.02213e-07 
612.793 3.02271e-07 
613.281 3.0233e-07 
613.77 3.02389e-07 
614.258 3.02448e-07 
614.746 3.02507e-07 
615.234 3.02567e-07 
615.723 3.02627e-07 
616.211 3.02687e-07 
616.699 3.02747e-07 
617.188 3.02808e-07 
617.676 3.02869e-07 
618.164 3.0293e-07 
618.652 3.02991e-07 
619.141 3.03053e-07 
619.629 3.03114e-07 
620.117 3.03176e-07 
620.605 3.03239e-07 
621.094 3.03301e-07 
621.582 3.03364e-07 
622.07 3.03427e-07 
622.559 3.03491e-07 
623.047 3.03554e-07 
623.535 3.03618e-07 
624.023 3.03682e-07 
624.512 3.03746e-07 
625 3.03811e-07 
625.488 3.03876e-07 
625.977 3.03941e-07 
626.465 3.04006e-07 
626.953 3.04071e-07 
627.441 3.04137e-07 
627.93 3.04203e-07 
628.418 3.04269e-07 
628.906 3.04335e-07 
629.395 3.04402e-07 
629.883 3.04468e-07 
630.371 3.04535e-07 
630.859 3.04602e-07 
631.348 3.04669e-07 
631.836 3.04736e-07 
632.324 3.04804e-07 
632.812 3.04872e-07 
633.301 3.04939e-07 
633.789 3.05007e-07 
634.277 3.05075e-07 
634.766 3.05144e-07 
635.254 3.05212e-07 
635.742 3.05281e-07 
636.23 3.05349e-07 
636.719 3.05418e-07 
637.207 3.05487e-07 
637.695 3.05557e-07 
638.184 3.05626e-07 
638.672 3.05696e-07 
639.16 3.05765e-07 
639.648 3.05835e-07 
640.137 3.05905e-07 
640.625 3.05976e-07 
641.113 3.06046e-07 
641.602 3.06116e-07 
642.09 3.06187e-07 
642.578 3.06258e-07 
643.066 3.0633e-07 
643.555 3.06401e-07 
644.043 3.06473e-07 
644.531 3.06545e-07 
645.02 3.06617e-07 
645.508 3.06689e-07 
645.996 3.06761e-07 
646.484 3.06834e-07 
646.973 3.06907e-07 
647.461 3.0698e-07 
647.949 3.07054e-07 
648.438 3.07127e-07 
648.926 3.07201e-07 
649.414 3.07275e-07 
649.902 3.07349e-07 
650.391 3.07424e-07 
650.879 3.07498e-07 
651.367 3.07573e-07 
651.855 3.07648e-07 
652.344 3.07723e-07 
652.832 3.07798e-07 
653.32 3.07874e-07 
653.809 3.07949e-07 
654.297 3.08025e-07 
654.785 3.08101e-07 
655.273 3.08177e-07 
655.762 3.08254e-07 
656.25 3.0833e-07 
656.738 3.08407e-07 
657.227 3.08483e-07 
657.715 3.0856e-07 
658.203 3.08637e-07 
658.691 3.08714e-07 
659.18 3.08791e-07 
659.668 3.08869e-07 
660.156 3.08946e-07 
660.645 3.09024e-07 
661.133 3.09102e-07 
661.621 3.0918e-07 
662.109 3.09258e-07 
662.598 3.09336e-07 
663.086 3.09415e-07 
663.574 3.09493e-07 
664.062 3.09572e-07 
664.551 3.09651e-07 
665.039 3.0973e-07 
665.527 3.09809e-07 
666.016 3.09888e-07 
666.504 3.09968e-07 
666.992 3.10048e-07 
667.48 3.10128e-07 
667.969 3.10208e-07 
668.457 3.10289e-07 
668.945 3.10369e-07 
669.434 3.1045e-07 
669.922 3.10532e-07 
670.41 3.10613e-07 
670.898 3.10695e-07 
671.387 3.10776e-07 
671.875 3.10859e-07 
672.363 3.10941e-07 
672.852 3.11024e-07 
673.34 3.11106e-07 
673.828 3.11189e-07 
674.316 3.11272e-07 
674.805 3.11356e-07 
675.293 3.1144e-07 
675.781 3.11524e-07 
676.27 3.11608e-07 
676.758 3.11692e-07 
677.246 3.11776e-07 
677.734 3.11861e-07 
678.223 3.11946e-07 
678.711 3.1203e-07 
679.199 3.12115e-07 
679.688 3.12201e-07 
680.176 3.12286e-07 
680.664 3.12372e-07 
681.152 3.12458e-07 
681.641 3.12543e-07 
682.129 3.12629e-07 
682.617 3.12716e-07 
683.105 3.12802e-07 
683.594 3.12888e-07 
684.082 3.12975e-07 
684.57 3.13062e-07 
685.059 3.13149e-07 
685.547 3.13236e-07 
686.035 3.13323e-07 
686.523 3.1341e-07 
687.012 3.13498e-07 
687.5 3.13586e-07 
687.988 3.13674e-07 
688.477 3.13762e-07 
688.965 3.13851e-07 
689.453 3.13939e-07 
689.941 3.14028e-07 
690.43 3.14117e-07 
690.918 3.14207e-07 
691.406 3.14296e-07 
691.895 3.14386e-07 
692.383 3.14476e-07 
692.871 3.14567e-07 
693.359 3.14657e-07 
693.848 3.14748e-07 
694.336 3.14839e-07 
694.824 3.14931e-07 
695.312 3.15023e-07 
695.801 3.15115e-07 
696.289 3.15207e-07 
696.777 3.15299e-07 
697.266 3.15392e-07 
697.754 3.15485e-07 
698.242 3.15578e-07 
698.73 3.15671e-07 
699.219 3.15765e-07 
699.707 3.15858e-07 
700.195 3.15952e-07 
700.684 3.16046e-07 
701.172 3.16141e-07 
701.66 3.16235e-07 
702.148 3.1633e-07 
702.637 3.16424e-07 
703.125 3.16519e-07 
703.613 3.16615e-07 
704.102 3.1671e-07 
704.59 3.16805e-07 
705.078 3.16901e-07 
705.566 3.16997e-07 
706.055 3.17093e-07 
706.543 3.17189e-07 
707.031 3.17285e-07 
707.52 3.17382e-07 
708.008 3.17479e-07 
708.496 3.17576e-07 
708.984 3.17673e-07 
709.473 3.17771e-07 
709.961 3.17869e-07 
710.449 3.17967e-07 
710.938 3.18065e-07 
711.426 3.18164e-07 
711.914 3.18262e-07 
712.402 3.18362e-07 
712.891 3.18461e-07 
713.379 3.18561e-07 
713.867 3.18661e-07 
714.355 3.18761e-07 
714.844 3.18862e-07 
715.332 3.18963e-07 
715.82 3.19064e-07 
716.309 3.19166e-07 
716.797 3.19268e-07 
717.285 3.1937e-07 
717.773 3.19472e-07 
718.262 3.19575e-07 
718.75 3.19678e-07 
719.238 3.19781e-07 
719.727 3.19885e-07 
720.215 3.19989e-07 
720.703 3.20093e-07 
721.191 3.20197e-07 
721.68 3.20301e-07 
722.168 3.20406e-07 
722.656 3.20511e-07 
723.145 3.20616e-07 
723.633 3.20721e-07 
724.121 3.20826e-07 
724.609 3.20932e-07 
725.098 3.21037e-07 
725.586 3.21143e-07 
726.074 3.2125e-07 
726.562 3.21356e-07 
727.051 3.21462e-07 
727.539 3.21569e-07 
728.027 3.21676e-07 
728.516 3.21783e-07 
729.004 3.21891e-07 
729.492 3.21999e-07 
729.98 3.22107e-07 
730.469 3.22215e-07 
730.957 3.22324e-07 
731.445 3.22433e-07 
731.934 3.22543e-07 
732.422 3.22652e-07 
732.91 3.22763e-07 
733.398 3.22873e-07 
733.887 3.22984e-07 
734.375 3.23095e-07 
734.863 3.23207e-07 
735.352 3.23319e-07 
735.84 3.23431e-07 
736.328 3.23544e-07 
736.816 3.23657e-07 
737.305 3.23771e-07 
737.793 3.23885e-07 
738.281 3.23999e-07 
738.77 3.24113e-07 
739.258 3.24228e-07 
739.746 3.24343e-07 
740.234 3.24458e-07 
740.723 3.24574e-07 
741.211 3.2469e-07 
741.699 3.24806e-07 
742.188 3.24922e-07 
742.676 3.25039e-07 
743.164 3.25156e-07 
743.652 3.25273e-07 
744.141 3.25391e-07 
744.629 3.25508e-07 
745.117 3.25626e-07 
745.605 3.25744e-07 
746.094 3.25863e-07 
746.582 3.25982e-07 
747.07 3.26101e-07 
747.559 3.2622e-07 
748.047 3.2634e-07 
748.535 3.2646e-07 
749.023 3.2658e-07 
749.512 3.26701e-07 
750 3.26822e-07 
750.488 3.26944e-07 
750.977 3.27066e-07 
751.465 3.27188e-07 
751.953 3.27311e-07 
752.441 3.27435e-07 
752.93 3.27558e-07 
753.418 3.27683e-07 
753.906 3.27807e-07 
754.395 3.27932e-07 
754.883 3.28058e-07 
755.371 3.28184e-07 
755.859 3.28311e-07 
756.348 3.28437e-07 
756.836 3.28565e-07 
757.324 3.28692e-07 
757.812 3.2882e-07 
758.301 3.28949e-07 
758.789 3.29077e-07 
759.277 3.29207e-07 
759.766 3.29336e-07 
760.254 3.29466e-07 
760.742 3.29596e-07 
761.23 3.29726e-07 
761.719 3.29857e-07 
762.207 3.29988e-07 
762.695 3.30119e-07 
763.184 3.30251e-07 
763.672 3.30383e-07 
764.16 3.30515e-07 
764.648 3.30648e-07 
765.137 3.30781e-07 
765.625 3.30915e-07 
766.113 3.3105e-07 
766.602 3.31184e-07 
767.09 3.3132e-07 
767.578 3.31455e-07 
768.066 3.31592e-07 
768.555 3.31729e-07 
769.043 3.31866e-07 
769.531 3.32004e-07 
770.02 3.32143e-07 
770.508 3.32282e-07 
770.996 3.32422e-07 
771.484 3.32562e-07 
771.973 3.32703e-07 
772.461 3.32844e-07 
772.949 3.32986e-07 
773.438 3.33128e-07 
773.926 3.3327e-07 
774.414 3.33413e-07 
774.902 3.33556e-07 
775.391 3.337e-07 
775.879 3.33844e-07 
776.367 3.33988e-07 
776.855 3.34132e-07 
777.344 3.34277e-07 
777.832 3.34422e-07 
778.32 3.34567e-07 
778.809 3.34712e-07 
779.297 3.34858e-07 
779.785 3.35004e-07 
780.273 3.3515e-07 
780.762 3.35297e-07 
781.25 3.35444e-07 
781.738 3.35591e-07 
782.227 3.35739e-07 
782.715 3.35888e-07 
783.203 3.36037e-07 
783.691 3.36187e-07 
784.18 3.36338e-07 
784.668 3.3649e-07 
785.156 3.36642e-07 
785.645 3.36796e-07 
786.133 3.3695e-07 
786.621 3.37106e-07 
787.109 3.37262e-07 
787.598 3.37419e-07 
788.086 3.37578e-07 
788.574 3.37737e-07 
789.062 3.37898e-07 
789.551 3.3806e-07 
790.039 3.38223e-07 
790.527 3.38386e-07 
791.016 3.38551e-07 
791.504 3.38717e-07 
791.992 3.38884e-07 
792.48 3.39051e-07 
792.969 3.3922e-07 
793.457 3.3939e-07 
793.945 3.39561e-07 
794.434 3.39732e-07 
794.922 3.39904e-07 
795.41 3.40077e-07 
795.898 3.40251e-07 
796.387 3.40426e-07 
796.875 3.40602e-07 
797.363 3.40778e-07 
797.852 3.40955e-07 
798.34 3.41132e-07 
798.828 3.4131e-07 
799.316 3.41489e-07 
799.805 3.41668e-07 
800.293 3.41848e-07 
800.781 3.42028e-07 
801.27 3.42208e-07 
801.758 3.42388e-07 
802.246 3.42569e-07 
802.734 3.42749e-07 
803.223 3.4293e-07 
803.711 3.4311e-07 
804.199 3.43289e-07 
804.688 3.43469e-07 
805.176 3.43648e-07 
805.664 3.43826e-07 
806.152 3.44004e-07 
806.641 3.44182e-07 
807.129 3.4436e-07 
807.617 3.44537e-07 
808.105 3.44713e-07 
808.594 3.4489e-07 
809.082 3.45066e-07 
809.57 3.45243e-07 
810.059 3.4542e-07 
810.547 3.45598e-07 
811.035 3.45776e-07 
811.523 3.45956e-07 
812.012 3.46136e-07 
812.5 3.46319e-07 
812.988 3.46502e-07 
813.477 3.46689e-07 
813.965 3.46877e-07 
814.453 3.47068e-07 
814.941 3.47262e-07 
815.43 3.47458e-07 
815.918 3.47658e-07 
816.406 3.47862e-07 
816.895 3.48068e-07 
817.383 3.48279e-07 
817.871 3.48494e-07 
818.359 3.48712e-07 
818.848 3.48934e-07 
819.336 3.4916e-07 
819.824 3.4939e-07 
820.312 3.49623e-07 
820.801 3.4986e-07 
821.289 3.50101e-07 
821.777 3.50345e-07 
822.266 3.50591e-07 
822.754 3.50841e-07 
823.242 3.51092e-07 
823.73 3.51345e-07 
824.219 3.516e-07 
824.707 3.51855e-07 
825.195 3.52111e-07 
825.684 3.52366e-07 
826.172 3.52621e-07 
826.66 3.52874e-07 
827.148 3.53126e-07 
827.637 3.53377e-07 
828.125 3.53624e-07 
828.613 3.5387e-07 
829.102 3.54113e-07 
829.59 3.54353e-07 
830.078 3.54592e-07 
830.566 3.54828e-07 
831.055 3.55063e-07 
831.543 3.55297e-07 
832.031 3.55531e-07 
832.52 3.55766e-07 
833.008 3.56002e-07 
833.496 3.5624e-07 
833.984 3.56483e-07 
834.473 3.56729e-07 
834.961 3.56981e-07 
835.449 3.57239e-07 
835.938 3.57504e-07 
836.426 3.57776e-07 
836.914 3.58055e-07 
837.402 3.58342e-07 
837.891 3.58636e-07 
838.379 3.58938e-07 
838.867 3.59245e-07 
839.355 3.59559e-07 
839.844 3.59879e-07 
840.332 3.60203e-07 
840.82 3.6053e-07 
841.309 3.60861e-07 
841.797 3.61195e-07 
842.285 3.61531e-07 
842.773 3.6187e-07 
843.262 3.62212e-07 
843.75 3.62557e-07 
844.238 3.62908e-07 
844.727 3.63263e-07 
845.215 3.63623e-07 
845.703 3.63984e-07 
846.191 3.64349e-07 
846.68 3.64723e-07 
847.168 3.65108e-07 
847.656 3.655e-07 
848.145 3.65897e-07 
848.633 3.66302e-07 
849.121 3.66715e-07 
849.609 3.67133e-07 
850.098 3.67562e-07 
850.586 3.67999e-07 
851.074 3.68441e-07 
851.562 3.68891e-07 
852.051 3.6935e-07 
852.539 3.69812e-07 
853.027 3.70275e-07 
853.516 3.70744e-07 
854.004 3.71217e-07 
854.492 3.71689e-07 
854.98 3.72158e-07 
855.469 3.7263e-07 
855.957 3.73106e-07 
856.445 3.73582e-07 
856.934 3.74051e-07 
857.422 3.74519e-07 
857.91 3.7499e-07 
858.398 3.75459e-07 
858.887 3.7592e-07 
859.375 3.76374e-07 
859.863 3.76828e-07 
860.352 3.77288e-07 
860.84 3.7775e-07 
861.328 3.78207e-07 
861.816 3.78664e-07 
862.305 3.79127e-07 
862.793 3.79598e-07 
863.281 3.80072e-07 
863.77 3.80543e-07 
864.258 3.81014e-07 
864.746 3.81493e-07 
865.234 3.81982e-07 
865.723 3.82476e-07 
866.211 3.82969e-07 
866.699 3.83463e-07 
867.188 3.83963e-07 
867.676 3.84478e-07 
868.164 3.85005e-07 
868.652 3.85536e-07 
869.141 3.86069e-07 
869.629 3.86607e-07 
870.117 3.8716e-07 
870.605 3.87726e-07 
871.094 3.883e-07 
871.582 3.88876e-07 
872.07 3.89454e-07 
872.559 3.90044e-07 
873.047 3.9065e-07 
873.535 3.91269e-07 
874.023 3.91895e-07 
874.512 3.92522e-07 
875 3.93155e-07 
875.488 3.93799e-07 
875.977 3.94457e-07 
876.465 3.95122e-07 
876.953 3.9579e-07 
877.441 3.96459e-07 
877.93 3.9714e-07 
878.418 3.97839e-07 
878.906 3.98558e-07 
879.395 3.9929e-07 
879.883 4.00034e-07 
880.371 4.00792e-07 
880.859 4.01572e-07 
881.348 4.02377e-07 
881.836 4.03197e-07 
882.324 4.04023e-07 
882.812 4.04851e-07 
883.301 4.05684e-07 
883.789 4.06532e-07 
884.277 4.07402e-07 
884.766 4.08291e-07 
885.254 4.09197e-07 
885.742 4.10125e-07 
886.23 4.11081e-07 
886.719 4.1207e-07 
887.207 4.13087e-07 
887.695 4.14119e-07 
888.184 4.15155e-07 
888.672 4.16194e-07 
889.16 4.17243e-07 
889.648 4.18302e-07 
890.137 4.19365e-07 
890.625 4.20422e-07 
891.113 4.21468e-07 
891.602 4.22503e-07 
892.09 4.23524e-07 
892.578 4.2452e-07 
893.066 4.25472e-07 
893.555 4.26364e-07 
894.043 4.27182e-07 
894.531 4.27918e-07 
895.02 4.28572e-07 
895.508 4.29154e-07 
895.996 4.29706e-07 
896.484 4.30293e-07 
896.973 4.30975e-07 
897.461 4.31763e-07 
897.949 4.32622e-07 
898.438 4.33509e-07 
898.926 4.344e-07 
899.414 4.35297e-07 
899.902 4.36211e-07 
900.391 4.3713e-07 
900.879 4.38028e-07 
901.367 4.38899e-07 
901.855 4.39763e-07 
902.344 4.40657e-07 
902.832 4.41608e-07 
903.32 4.42633e-07 
903.809 4.43761e-07 
904.297 4.45035e-07 
904.785 4.46485e-07 
905.273 4.4811e-07 
905.762 4.49897e-07 
906.25 4.51828e-07 
906.738 4.539e-07 
907.227 4.56123e-07 
907.715 4.58504e-07 
908.203 4.61062e-07 
908.691 4.63831e-07 
909.18 4.66832e-07 
909.668 4.70066e-07 
910.156 4.73535e-07 
910.645 4.77263e-07 
911.133 4.81287e-07 
911.621 4.85622e-07 
912.109 4.90222e-07 
912.598 4.95022e-07 
913.086 4.99985e-07 
913.574 5.05096e-07 
914.062 5.1036e-07 
914.551 5.1579e-07 
915.039 5.21363e-07 
915.527 5.26997e-07 
916.016 5.32563e-07 
916.504 5.37928e-07 
916.992 5.4294e-07 
917.48 5.47405e-07 
917.969 5.51166e-07 
918.457 5.54109e-07 
918.945 5.56106e-07 
919.434 5.57061e-07 
919.922 5.56951e-07 
920.41 5.55822e-07 
920.898 5.53738e-07 
921.387 5.50746e-07 
921.875 5.46895e-07 
922.363 5.4228e-07 
922.852 5.36902e-07 
923.34 5.30649e-07 
923.828 5.23546e-07 
924.316 5.15786e-07 
924.805 5.07599e-07 
925.293 4.99198e-07 
925.781 4.90905e-07 
926.27 4.83242e-07 
926.758 4.76665e-07 
927.246 4.71283e-07 
927.734 4.66742e-07 
928.223 4.623e-07 
928.711 4.57331e-07 
929.199 4.51754e-07 
929.688 4.46034e-07 
930.176 4.40495e-07 
930.664 4.34842e-07 
931.152 4.28608e-07 
931.641 4.21838e-07 
932.129 4.14974e-07 
932.617 4.08011e-07 
933.105 4.01117e-07 
933.594 3.95481e-07 
934.082 3.92484e-07 
934.57 3.92656e-07 
935.059 3.95605e-07 
935.547 4.00796e-07 
936.035 4.08056e-07 
936.523 4.17541e-07 
937.012 4.29675e-07 
937.5 4.45179e-07 
937.988 4.65175e-07 
938.477 4.91383e-07 
938.965 5.26493e-07 
939.453 5.74866e-07 
939.941 6.43919e-07 
940.43 7.47013e-07 
940.918 9.10064e-07 
941.406 1.18802e-06 
941.895 1.71003e-06 
942.383 2.80465e-06 
942.871 5.12345e-06 
943.359 7.59329e-06 
943.848 6.73803e-06 
944.336 3.96194e-06 
944.824 2.24155e-06 
945.312 1.44733e-06 
945.801 1.05128e-06 
946.289 8.312e-07 
946.777 6.97675e-07 
947.266 6.10991e-07 
947.754 5.5169e-07 
948.242 5.09401e-07 
948.73 4.78219e-07 
949.219 4.54587e-07 
949.707 4.3626e-07 
950.195 4.21769e-07 
950.684 4.10119e-07 
951.172 4.00618e-07 
951.66 3.92772e-07 
952.148 3.8622e-07 
952.637 3.80697e-07 
953.125 3.76e-07 
953.613 3.71974e-07 
954.102 3.685e-07 
954.59 3.65484e-07 
955.078 3.62849e-07 
955.566 3.60537e-07 
956.055 3.58498e-07 
956.543 3.56692e-07 
957.031 3.55087e-07 
957.52 3.53655e-07 
958.008 3.52374e-07 
958.496 3.51224e-07 
958.984 3.50189e-07 
959.473 3.49256e-07 
959.961 3.48412e-07 
960.449 3.47648e-07 
960.938 3.46954e-07 
961.426 3.46324e-07 
961.914 3.45751e-07 
962.402 3.45228e-07 
962.891 3.44752e-07 
963.379 3.44317e-07 
963.867 3.43921e-07 
964.355 3.43558e-07 
964.844 3.43226e-07 
965.332 3.42923e-07 
965.82 3.42646e-07 
966.309 3.42393e-07 
966.797 3.42162e-07 
967.285 3.4195e-07 
967.773 3.41758e-07 
968.262 3.41582e-07 
968.75 3.41422e-07 
969.238 3.41277e-07 
969.727 3.41146e-07 
