#energy geo_1 
500 3.11408e-07 
500.488 3.11452e-07 
500.977 3.11496e-07 
501.465 3.1154e-07 
501.953 3.11584e-07 
502.441 3.11628e-07 
502.93 3.11673e-07 
503.418 3.11717e-07 
503.906 3.11761e-07 
504.395 3.11806e-07 
504.883 3.1185e-07 
505.371 3.11895e-07 
505.859 3.11939e-07 
506.348 3.11984e-07 
506.836 3.12029e-07 
507.324 3.12074e-07 
507.812 3.12119e-07 
508.301 3.12164e-07 
508.789 3.12209e-07 
509.277 3.12254e-07 
509.766 3.12299e-07 
510.254 3.12344e-07 
510.742 3.12389e-07 
511.23 3.12434e-07 
511.719 3.12479e-07 
512.207 3.12525e-07 
512.695 3.1257e-07 
513.184 3.12615e-07 
513.672 3.12661e-07 
514.16 3.12706e-07 
514.648 3.12751e-07 
515.137 3.12797e-07 
515.625 3.12842e-07 
516.113 3.12888e-07 
516.602 3.12933e-07 
517.09 3.12978e-07 
517.578 3.13024e-07 
518.066 3.13069e-07 
518.555 3.13114e-07 
519.043 3.1316e-07 
519.531 3.13205e-07 
520.02 3.13251e-07 
520.508 3.13296e-07 
520.996 3.13341e-07 
521.484 3.13387e-07 
521.973 3.13432e-07 
522.461 3.13477e-07 
522.949 3.13523e-07 
523.438 3.13568e-07 
523.926 3.13614e-07 
524.414 3.13659e-07 
524.902 3.13705e-07 
525.391 3.1375e-07 
525.879 3.13796e-07 
526.367 3.13841e-07 
526.855 3.13887e-07 
527.344 3.13933e-07 
527.832 3.13978e-07 
528.32 3.14024e-07 
528.809 3.1407e-07 
529.297 3.14116e-07 
529.785 3.14162e-07 
530.273 3.14208e-07 
530.762 3.14254e-07 
531.25 3.143e-07 
531.738 3.14346e-07 
532.227 3.14392e-07 
532.715 3.14438e-07 
533.203 3.14485e-07 
533.691 3.14531e-07 
534.18 3.14577e-07 
534.668 3.14624e-07 
535.156 3.14671e-07 
535.645 3.14717e-07 
536.133 3.14764e-07 
536.621 3.1481e-07 
537.109 3.14857e-07 
537.598 3.14904e-07 
538.086 3.14951e-07 
538.574 3.14998e-07 
539.062 3.15045e-07 
539.551 3.15092e-07 
540.039 3.15139e-07 
540.527 3.15186e-07 
541.016 3.15233e-07 
541.504 3.1528e-07 
541.992 3.15328e-07 
542.48 3.15375e-07 
542.969 3.15422e-07 
543.457 3.1547e-07 
543.945 3.15517e-07 
544.434 3.15564e-07 
544.922 3.15612e-07 
545.41 3.15659e-07 
545.898 3.15707e-07 
546.387 3.15754e-07 
546.875 3.15802e-07 
547.363 3.15849e-07 
547.852 3.15896e-07 
548.34 3.15944e-07 
548.828 3.15992e-07 
549.316 3.16039e-07 
549.805 3.16087e-07 
550.293 3.16134e-07 
550.781 3.16182e-07 
551.27 3.16229e-07 
551.758 3.16277e-07 
552.246 3.16325e-07 
552.734 3.16372e-07 
553.223 3.1642e-07 
553.711 3.16468e-07 
554.199 3.16515e-07 
554.688 3.16563e-07 
555.176 3.16611e-07 
555.664 3.16659e-07 
556.152 3.16707e-07 
556.641 3.16755e-07 
557.129 3.16803e-07 
557.617 3.16851e-07 
558.105 3.16899e-07 
558.594 3.16947e-07 
559.082 3.16995e-07 
559.57 3.17043e-07 
560.059 3.17091e-07 
560.547 3.17139e-07 
561.035 3.17188e-07 
561.523 3.17236e-07 
562.012 3.17284e-07 
562.5 3.17333e-07 
562.988 3.17381e-07 
563.477 3.1743e-07 
563.965 3.17479e-07 
564.453 3.17527e-07 
564.941 3.17576e-07 
565.43 3.17625e-07 
565.918 3.17674e-07 
566.406 3.17723e-07 
566.895 3.17771e-07 
567.383 3.1782e-07 
567.871 3.17869e-07 
568.359 3.17918e-07 
568.848 3.17968e-07 
569.336 3.18017e-07 
569.824 3.18066e-07 
570.312 3.18115e-07 
570.801 3.18165e-07 
571.289 3.18214e-07 
571.777 3.18264e-07 
572.266 3.18313e-07 
572.754 3.18363e-07 
573.242 3.18412e-07 
573.73 3.18462e-07 
574.219 3.18512e-07 
574.707 3.18561e-07 
575.195 3.18611e-07 
575.684 3.18661e-07 
576.172 3.1871e-07 
576.66 3.1876e-07 
577.148 3.1881e-07 
577.637 3.1886e-07 
578.125 3.1891e-07 
578.613 3.1896e-07 
579.102 3.1901e-07 
579.59 3.1906e-07 
580.078 3.1911e-07 
580.566 3.1916e-07 
581.055 3.1921e-07 
581.543 3.1926e-07 
582.031 3.1931e-07 
582.52 3.19361e-07 
583.008 3.19411e-07 
583.496 3.19461e-07 
583.984 3.19512e-07 
584.473 3.19562e-07 
584.961 3.19612e-07 
585.449 3.19662e-07 
585.938 3.19713e-07 
586.426 3.19764e-07 
586.914 3.19814e-07 
587.402 3.19865e-07 
587.891 3.19915e-07 
588.379 3.19966e-07 
588.867 3.20016e-07 
589.355 3.20067e-07 
589.844 3.20118e-07 
590.332 3.20168e-07 
590.82 3.20219e-07 
591.309 3.2027e-07 
591.797 3.20321e-07 
592.285 3.20372e-07 
592.773 3.20423e-07 
593.262 3.20474e-07 
593.75 3.20525e-07 
594.238 3.20576e-07 
594.727 3.20627e-07 
595.215 3.20679e-07 
595.703 3.2073e-07 
596.191 3.20781e-07 
596.68 3.20833e-07 
597.168 3.20884e-07 
597.656 3.20935e-07 
598.145 3.20987e-07 
598.633 3.21039e-07 
599.121 3.21091e-07 
599.609 3.21142e-07 
600.098 3.21194e-07 
600.586 3.21246e-07 
601.074 3.21298e-07 
601.562 3.21349e-07 
602.051 3.21401e-07 
602.539 3.21453e-07 
603.027 3.21506e-07 
603.516 3.21558e-07 
604.004 3.2161e-07 
604.492 3.21662e-07 
604.98 3.21714e-07 
605.469 3.21767e-07 
605.957 3.21819e-07 
606.445 3.21872e-07 
606.934 3.21924e-07 
607.422 3.21977e-07 
607.91 3.22029e-07 
608.398 3.22082e-07 
608.887 3.22135e-07 
609.375 3.22187e-07 
609.863 3.2224e-07 
610.352 3.22293e-07 
610.84 3.22346e-07 
611.328 3.22399e-07 
611.816 3.22451e-07 
612.305 3.22504e-07 
612.793 3.22557e-07 
613.281 3.2261e-07 
613.77 3.22663e-07 
614.258 3.22717e-07 
614.746 3.2277e-07 
615.234 3.22823e-07 
615.723 3.22876e-07 
616.211 3.2293e-07 
616.699 3.22983e-07 
617.188 3.23036e-07 
617.676 3.2309e-07 
618.164 3.23143e-07 
618.652 3.23197e-07 
619.141 3.2325e-07 
619.629 3.23304e-07 
620.117 3.23357e-07 
620.605 3.23411e-07 
621.094 3.23465e-07 
621.582 3.23519e-07 
622.07 3.23572e-07 
622.559 3.23626e-07 
623.047 3.2368e-07 
623.535 3.23734e-07 
624.023 3.23788e-07 
624.512 3.23842e-07 
625 3.23896e-07 
625.488 3.2395e-07 
625.977 3.24004e-07 
626.465 3.24058e-07 
626.953 3.24113e-07 
627.441 3.24167e-07 
627.93 3.24221e-07 
628.418 3.24276e-07 
628.906 3.2433e-07 
629.395 3.24385e-07 
629.883 3.24439e-07 
630.371 3.24494e-07 
630.859 3.24549e-07 
631.348 3.24603e-07 
631.836 3.24658e-07 
632.324 3.24713e-07 
632.812 3.24768e-07 
633.301 3.24823e-07 
633.789 3.24878e-07 
634.277 3.24933e-07 
634.766 3.24988e-07 
635.254 3.25043e-07 
635.742 3.25098e-07 
636.23 3.25154e-07 
636.719 3.25209e-07 
637.207 3.25264e-07 
637.695 3.2532e-07 
638.184 3.25375e-07 
638.672 3.25431e-07 
639.16 3.25486e-07 
639.648 3.25542e-07 
640.137 3.25598e-07 
640.625 3.25654e-07 
641.113 3.2571e-07 
641.602 3.25766e-07 
642.09 3.25822e-07 
642.578 3.25878e-07 
643.066 3.25934e-07 
643.555 3.2599e-07 
644.043 3.26046e-07 
644.531 3.26102e-07 
645.02 3.26159e-07 
645.508 3.26215e-07 
645.996 3.26271e-07 
646.484 3.26328e-07 
646.973 3.26384e-07 
647.461 3.26441e-07 
647.949 3.26497e-07 
648.438 3.26554e-07 
648.926 3.26611e-07 
649.414 3.26668e-07 
649.902 3.26724e-07 
650.391 3.26781e-07 
650.879 3.26838e-07 
651.367 3.26895e-07 
651.855 3.26952e-07 
652.344 3.27009e-07 
652.832 3.27066e-07 
653.32 3.27123e-07 
653.809 3.2718e-07 
654.297 3.27238e-07 
654.785 3.27295e-07 
655.273 3.27352e-07 
655.762 3.2741e-07 
656.25 3.27467e-07 
656.738 3.27525e-07 
657.227 3.27582e-07 
657.715 3.2764e-07 
658.203 3.27698e-07 
658.691 3.27755e-07 
659.18 3.27813e-07 
659.668 3.27871e-07 
660.156 3.27929e-07 
660.645 3.27986e-07 
661.133 3.28044e-07 
661.621 3.28102e-07 
662.109 3.2816e-07 
662.598 3.28218e-07 
663.086 3.28277e-07 
663.574 3.28335e-07 
664.062 3.28393e-07 
664.551 3.28451e-07 
665.039 3.2851e-07 
665.527 3.28568e-07 
666.016 3.28627e-07 
666.504 3.28685e-07 
666.992 3.28744e-07 
667.48 3.28803e-07 
667.969 3.28862e-07 
668.457 3.2892e-07 
668.945 3.28979e-07 
669.434 3.29038e-07 
669.922 3.29097e-07 
670.41 3.29156e-07 
670.898 3.29216e-07 
671.387 3.29275e-07 
671.875 3.29334e-07 
672.363 3.29394e-07 
672.852 3.29453e-07 
673.34 3.29513e-07 
673.828 3.29572e-07 
674.316 3.29632e-07 
674.805 3.29691e-07 
675.293 3.29751e-07 
675.781 3.29811e-07 
676.27 3.29871e-07 
676.758 3.29931e-07 
677.246 3.29991e-07 
677.734 3.30051e-07 
678.223 3.30111e-07 
678.711 3.30171e-07 
679.199 3.30232e-07 
679.688 3.30292e-07 
680.176 3.30352e-07 
680.664 3.30413e-07 
681.152 3.30473e-07 
681.641 3.30534e-07 
682.129 3.30594e-07 
682.617 3.30655e-07 
683.105 3.30716e-07 
683.594 3.30777e-07 
684.082 3.30837e-07 
684.57 3.30898e-07 
685.059 3.30959e-07 
685.547 3.3102e-07 
686.035 3.31081e-07 
686.523 3.31142e-07 
687.012 3.31203e-07 
687.5 3.31265e-07 
687.988 3.31326e-07 
688.477 3.31387e-07 
688.965 3.31449e-07 
689.453 3.3151e-07 
689.941 3.31571e-07 
690.43 3.31633e-07 
690.918 3.31695e-07 
691.406 3.31756e-07 
691.895 3.31818e-07 
692.383 3.3188e-07 
692.871 3.31941e-07 
693.359 3.32004e-07 
693.848 3.32065e-07 
694.336 3.32127e-07 
694.824 3.32189e-07 
695.312 3.32252e-07 
695.801 3.32314e-07 
696.289 3.32376e-07 
696.777 3.32438e-07 
697.266 3.32501e-07 
697.754 3.32563e-07 
698.242 3.32626e-07 
698.73 3.32688e-07 
699.219 3.32751e-07 
699.707 3.32814e-07 
700.195 3.32877e-07 
700.684 3.32939e-07 
701.172 3.33002e-07 
701.66 3.33065e-07 
702.148 3.33128e-07 
702.637 3.33192e-07 
703.125 3.33255e-07 
703.613 3.33318e-07 
704.102 3.33382e-07 
704.59 3.33445e-07 
705.078 3.33509e-07 
705.566 3.33572e-07 
706.055 3.33636e-07 
706.543 3.337e-07 
707.031 3.33764e-07 
707.52 3.33828e-07 
708.008 3.33892e-07 
708.496 3.33956e-07 
708.984 3.3402e-07 
709.473 3.34084e-07 
709.961 3.34149e-07 
710.449 3.34213e-07 
710.938 3.34277e-07 
711.426 3.34342e-07 
711.914 3.34407e-07 
712.402 3.34471e-07 
712.891 3.34536e-07 
713.379 3.34601e-07 
713.867 3.34666e-07 
714.355 3.34731e-07 
714.844 3.34796e-07 
715.332 3.34861e-07 
715.82 3.34926e-07 
716.309 3.34992e-07 
716.797 3.35057e-07 
717.285 3.35122e-07 
717.773 3.35188e-07 
718.262 3.35254e-07 
718.75 3.35319e-07 
719.238 3.35385e-07 
719.727 3.35451e-07 
720.215 3.35516e-07 
720.703 3.35582e-07 
721.191 3.35648e-07 
721.68 3.35714e-07 
722.168 3.3578e-07 
722.656 3.35847e-07 
723.145 3.35913e-07 
723.633 3.35979e-07 
724.121 3.36045e-07 
724.609 3.36112e-07 
725.098 3.36178e-07 
725.586 3.36245e-07 
726.074 3.36311e-07 
726.562 3.36378e-07 
727.051 3.36445e-07 
727.539 3.36512e-07 
728.027 3.36579e-07 
728.516 3.36646e-07 
729.004 3.36713e-07 
729.492 3.3678e-07 
729.98 3.36847e-07 
730.469 3.36915e-07 
730.957 3.36982e-07 
731.445 3.3705e-07 
731.934 3.37117e-07 
732.422 3.37185e-07 
732.91 3.37253e-07 
733.398 3.37321e-07 
733.887 3.37389e-07 
734.375 3.37457e-07 
734.863 3.37525e-07 
735.352 3.37593e-07 
735.84 3.37661e-07 
736.328 3.37729e-07 
736.816 3.37798e-07 
737.305 3.37866e-07 
737.793 3.37935e-07 
738.281 3.38004e-07 
738.77 3.38072e-07 
739.258 3.38141e-07 
739.746 3.3821e-07 
740.234 3.38279e-07 
740.723 3.38348e-07 
741.211 3.38418e-07 
741.699 3.38487e-07 
742.188 3.38556e-07 
742.676 3.38626e-07 
743.164 3.38695e-07 
743.652 3.38765e-07 
744.141 3.38835e-07 
744.629 3.38904e-07 
745.117 3.38974e-07 
745.605 3.39044e-07 
746.094 3.39114e-07 
746.582 3.39184e-07 
747.07 3.39254e-07 
747.559 3.39325e-07 
748.047 3.39395e-07 
748.535 3.39465e-07 
749.023 3.39536e-07 
749.512 3.39606e-07 
750 3.39677e-07 
750.488 3.39748e-07 
750.977 3.39818e-07 
751.465 3.39889e-07 
751.953 3.3996e-07 
752.441 3.40031e-07 
752.93 3.40102e-07 
753.418 3.40174e-07 
753.906 3.40245e-07 
754.395 3.40316e-07 
754.883 3.40387e-07 
755.371 3.40459e-07 
755.859 3.4053e-07 
756.348 3.40602e-07 
756.836 3.40674e-07 
757.324 3.40746e-07 
757.812 3.40817e-07 
758.301 3.40889e-07 
758.789 3.40961e-07 
759.277 3.41034e-07 
759.766 3.41106e-07 
760.254 3.41178e-07 
760.742 3.4125e-07 
761.23 3.41323e-07 
761.719 3.41395e-07 
762.207 3.41468e-07 
762.695 3.41541e-07 
763.184 3.41614e-07 
763.672 3.41687e-07 
764.16 3.4176e-07 
764.648 3.41833e-07 
765.137 3.41906e-07 
765.625 3.41979e-07 
766.113 3.42053e-07 
766.602 3.42126e-07 
767.09 3.422e-07 
767.578 3.42274e-07 
768.066 3.42348e-07 
768.555 3.42422e-07 
769.043 3.42496e-07 
769.531 3.4257e-07 
770.02 3.42644e-07 
770.508 3.42719e-07 
770.996 3.42793e-07 
771.484 3.42868e-07 
771.973 3.42942e-07 
772.461 3.43017e-07 
772.949 3.43092e-07 
773.438 3.43167e-07 
773.926 3.43242e-07 
774.414 3.43317e-07 
774.902 3.43393e-07 
775.391 3.43468e-07 
775.879 3.43544e-07 
776.367 3.43619e-07 
776.855 3.43695e-07 
777.344 3.43771e-07 
777.832 3.43847e-07 
778.32 3.43923e-07 
778.809 3.43999e-07 
779.297 3.44075e-07 
779.785 3.44152e-07 
780.273 3.44228e-07 
780.762 3.44305e-07 
781.25 3.44382e-07 
781.738 3.44458e-07 
782.227 3.44535e-07 
782.715 3.44612e-07 
783.203 3.4469e-07 
783.691 3.44767e-07 
784.18 3.44844e-07 
784.668 3.44921e-07 
785.156 3.44999e-07 
785.645 3.45077e-07 
786.133 3.45154e-07 
786.621 3.45232e-07 
787.109 3.4531e-07 
787.598 3.45388e-07 
788.086 3.45466e-07 
788.574 3.45545e-07 
789.062 3.45623e-07 
789.551 3.45702e-07 
790.039 3.4578e-07 
790.527 3.45859e-07 
791.016 3.45938e-07 
791.504 3.46017e-07 
791.992 3.46096e-07 
792.48 3.46175e-07 
792.969 3.46254e-07 
793.457 3.46334e-07 
793.945 3.46413e-07 
794.434 3.46493e-07 
794.922 3.46572e-07 
795.41 3.46652e-07 
795.898 3.46732e-07 
796.387 3.46812e-07 
796.875 3.46892e-07 
797.363 3.46972e-07 
797.852 3.47053e-07 
798.34 3.47133e-07 
798.828 3.47213e-07 
799.316 3.47294e-07 
799.805 3.47375e-07 
800.293 3.47456e-07 
800.781 3.47536e-07 
801.27 3.47617e-07 
801.758 3.47699e-07 
802.246 3.4778e-07 
802.734 3.47861e-07 
803.223 3.47942e-07 
803.711 3.48024e-07 
804.199 3.48106e-07 
804.688 3.48187e-07 
805.176 3.48269e-07 
805.664 3.48351e-07 
806.152 3.48433e-07 
806.641 3.48515e-07 
807.129 3.48597e-07 
807.617 3.4868e-07 
808.105 3.48762e-07 
808.594 3.48845e-07 
809.082 3.48928e-07 
809.57 3.4901e-07 
810.059 3.49093e-07 
810.547 3.49176e-07 
811.035 3.49259e-07 
811.523 3.49343e-07 
812.012 3.49426e-07 
812.5 3.49509e-07 
812.988 3.49593e-07 
813.477 3.49677e-07 
813.965 3.49761e-07 
814.453 3.49845e-07 
814.941 3.49929e-07 
815.43 3.50013e-07 
815.918 3.50097e-07 
816.406 3.50182e-07 
816.895 3.50266e-07 
817.383 3.50351e-07 
817.871 3.50436e-07 
818.359 3.50521e-07 
818.848 3.50606e-07 
819.336 3.50691e-07 
819.824 3.50777e-07 
820.312 3.50862e-07 
820.801 3.50948e-07 
821.289 3.51034e-07 
821.777 3.5112e-07 
822.266 3.51206e-07 
822.754 3.51292e-07 
823.242 3.51378e-07 
823.73 3.51465e-07 
824.219 3.51552e-07 
824.707 3.51638e-07 
825.195 3.51725e-07 
825.684 3.51812e-07 
826.172 3.51899e-07 
826.66 3.51987e-07 
827.148 3.52074e-07 
827.637 3.52161e-07 
828.125 3.52249e-07 
828.613 3.52337e-07 
829.102 3.52425e-07 
829.59 3.52513e-07 
830.078 3.52601e-07 
830.566 3.5269e-07 
831.055 3.52778e-07 
831.543 3.52867e-07 
832.031 3.52956e-07 
832.52 3.53044e-07 
833.008 3.53134e-07 
833.496 3.53223e-07 
833.984 3.53312e-07 
834.473 3.53402e-07 
834.961 3.53491e-07 
835.449 3.53581e-07 
835.938 3.53671e-07 
836.426 3.53762e-07 
836.914 3.53852e-07 
837.402 3.53942e-07 
837.891 3.54033e-07 
838.379 3.54124e-07 
838.867 3.54215e-07 
839.355 3.54306e-07 
839.844 3.54397e-07 
840.332 3.54489e-07 
840.82 3.5458e-07 
841.309 3.54672e-07 
841.797 3.54764e-07 
842.285 3.54856e-07 
842.773 3.54948e-07 
843.262 3.55041e-07 
843.75 3.55133e-07 
844.238 3.55226e-07 
844.727 3.55319e-07 
845.215 3.55412e-07 
845.703 3.55505e-07 
846.191 3.55599e-07 
846.68 3.55692e-07 
847.168 3.55786e-07 
847.656 3.5588e-07 
848.145 3.55974e-07 
848.633 3.56068e-07 
849.121 3.56162e-07 
849.609 3.56257e-07 
850.098 3.56351e-07 
850.586 3.56446e-07 
851.074 3.56541e-07 
851.562 3.56636e-07 
852.051 3.56731e-07 
852.539 3.56826e-07 
853.027 3.56921e-07 
853.516 3.57016e-07 
854.004 3.57112e-07 
854.492 3.57207e-07 
854.98 3.57303e-07 
855.469 3.57399e-07 
855.957 3.57494e-07 
856.445 3.5759e-07 
856.934 3.57686e-07 
857.422 3.57782e-07 
857.91 3.57878e-07 
858.398 3.57975e-07 
858.887 3.58071e-07 
859.375 3.58167e-07 
859.863 3.58264e-07 
860.352 3.5836e-07 
860.84 3.58457e-07 
861.328 3.58554e-07 
861.816 3.58651e-07 
862.305 3.58748e-07 
862.793 3.58845e-07 
863.281 3.58943e-07 
863.77 3.5904e-07 
864.258 3.59138e-07 
864.746 3.59235e-07 
865.234 3.59333e-07 
865.723 3.59431e-07 
866.211 3.5953e-07 
866.699 3.59628e-07 
867.188 3.59727e-07 
867.676 3.59826e-07 
868.164 3.59926e-07 
868.652 3.60025e-07 
869.141 3.60125e-07 
869.629 3.60225e-07 
870.117 3.60325e-07 
870.605 3.60425e-07 
871.094 3.60526e-07 
871.582 3.60627e-07 
872.07 3.60728e-07 
872.559 3.6083e-07 
873.047 3.60932e-07 
873.535 3.61034e-07 
874.023 3.61137e-07 
874.512 3.61239e-07 
875 3.61343e-07 
875.488 3.61446e-07 
875.977 3.6155e-07 
876.465 3.61653e-07 
876.953 3.61758e-07 
877.441 3.61862e-07 
877.93 3.61967e-07 
878.418 3.62072e-07 
878.906 3.62177e-07 
879.395 3.62283e-07 
879.883 3.62388e-07 
880.371 3.62494e-07 
880.859 3.626e-07 
881.348 3.62707e-07 
881.836 3.62813e-07 
882.324 3.6292e-07 
882.812 3.63027e-07 
883.301 3.63134e-07 
883.789 3.63241e-07 
884.277 3.63349e-07 
884.766 3.63456e-07 
885.254 3.63564e-07 
885.742 3.63672e-07 
886.23 3.6378e-07 
886.719 3.63888e-07 
887.207 3.63996e-07 
887.695 3.64105e-07 
888.184 3.64214e-07 
888.672 3.64322e-07 
889.16 3.64431e-07 
889.648 3.64541e-07 
890.137 3.6465e-07 
890.625 3.6476e-07 
891.113 3.6487e-07 
891.602 3.6498e-07 
892.09 3.6509e-07 
892.578 3.65201e-07 
893.066 3.65312e-07 
893.555 3.65423e-07 
894.043 3.65535e-07 
894.531 3.65646e-07 
895.02 3.65759e-07 
895.508 3.65871e-07 
895.996 3.65984e-07 
896.484 3.66098e-07 
896.973 3.66212e-07 
897.461 3.66326e-07 
897.949 3.66441e-07 
898.438 3.66556e-07 
898.926 3.66672e-07 
899.414 3.66789e-07 
899.902 3.66905e-07 
900.391 3.67023e-07 
900.879 3.67141e-07 
901.367 3.6726e-07 
901.855 3.67379e-07 
902.344 3.67498e-07 
902.832 3.67618e-07 
903.32 3.67739e-07 
903.809 3.67861e-07 
904.297 3.67982e-07 
904.785 3.68105e-07 
905.273 3.68228e-07 
905.762 3.68351e-07 
906.25 3.68475e-07 
906.738 3.686e-07 
907.227 3.68724e-07 
907.715 3.6885e-07 
908.203 3.68975e-07 
908.691 3.69102e-07 
909.18 3.69228e-07 
909.668 3.69355e-07 
910.156 3.69482e-07 
910.645 3.6961e-07 
911.133 3.69738e-07 
911.621 3.69866e-07 
912.109 3.69995e-07 
912.598 3.70124e-07 
913.086 3.70253e-07 
913.574 3.70382e-07 
914.062 3.70512e-07 
914.551 3.70642e-07 
915.039 3.70771e-07 
915.527 3.70902e-07 
916.016 3.71032e-07 
916.504 3.71163e-07 
916.992 3.71294e-07 
917.48 3.71425e-07 
917.969 3.71556e-07 
918.457 3.71687e-07 
918.945 3.71819e-07 
919.434 3.71951e-07 
919.922 3.72083e-07 
920.41 3.72216e-07 
920.898 3.72348e-07 
921.387 3.72481e-07 
921.875 3.72615e-07 
922.363 3.72748e-07 
922.852 3.72882e-07 
923.34 3.73017e-07 
923.828 3.73151e-07 
924.316 3.73286e-07 
924.805 3.73422e-07 
925.293 3.73557e-07 
925.781 3.73694e-07 
926.27 3.7383e-07 
926.758 3.73967e-07 
927.246 3.74105e-07 
927.734 3.74242e-07 
928.223 3.74381e-07 
928.711 3.74519e-07 
929.199 3.74658e-07 
929.688 3.74798e-07 
930.176 3.74938e-07 
930.664 3.75078e-07 
931.152 3.75219e-07 
931.641 3.7536e-07 
932.129 3.75501e-07 
932.617 3.75643e-07 
933.105 3.75785e-07 
933.594 3.75928e-07 
934.082 3.76071e-07 
934.57 3.76214e-07 
935.059 3.76357e-07 
935.547 3.76501e-07 
936.035 3.76645e-07 
936.523 3.7679e-07 
937.012 3.76934e-07 
937.5 3.77079e-07 
937.988 3.77225e-07 
938.477 3.7737e-07 
938.965 3.77516e-07 
939.453 3.77662e-07 
939.941 3.77808e-07 
940.43 3.77954e-07 
940.918 3.78101e-07 
941.406 3.78248e-07 
941.895 3.78395e-07 
942.383 3.78543e-07 
942.871 3.78691e-07 
943.359 3.78839e-07 
943.848 3.78988e-07 
944.336 3.79137e-07 
944.824 3.79286e-07 
945.312 3.79436e-07 
945.801 3.79586e-07 
946.289 3.79736e-07 
946.777 3.79887e-07 
947.266 3.80039e-07 
947.754 3.8019e-07 
948.242 3.80343e-07 
948.73 3.80496e-07 
949.219 3.80649e-07 
949.707 3.80803e-07 
950.195 3.80957e-07 
950.684 3.81112e-07 
951.172 3.81267e-07 
951.66 3.81423e-07 
952.148 3.8158e-07 
952.637 3.81737e-07 
953.125 3.81894e-07 
953.613 3.82052e-07 
954.102 3.82211e-07 
954.59 3.8237e-07 
955.078 3.82529e-07 
955.566 3.8269e-07 
956.055 3.8285e-07 
956.543 3.83011e-07 
957.031 3.83173e-07 
957.52 3.83335e-07 
958.008 3.83497e-07 
958.496 3.8366e-07 
958.984 3.83823e-07 
959.473 3.83987e-07 
959.961 3.84151e-07 
960.449 3.84315e-07 
960.938 3.8448e-07 
961.426 3.84645e-07 
961.914 3.8481e-07 
962.402 3.84976e-07 
962.891 3.85142e-07 
963.379 3.85309e-07 
963.867 3.85476e-07 
964.355 3.85643e-07 
964.844 3.85811e-07 
965.332 3.85979e-07 
965.82 3.86147e-07 
966.309 3.86316e-07 
966.797 3.86486e-07 
967.285 3.86655e-07 
967.773 3.86826e-07 
968.262 3.86997e-07 
968.75 3.87168e-07 
969.238 3.8734e-07 
