#energy geo_1 
500 3.10831e-07 
500.488 3.10872e-07 
500.977 3.10913e-07 
501.465 3.10953e-07 
501.953 3.10994e-07 
502.441 3.11035e-07 
502.93 3.11077e-07 
503.418 3.11118e-07 
503.906 3.11159e-07 
504.395 3.11201e-07 
504.883 3.11243e-07 
505.371 3.11284e-07 
505.859 3.11326e-07 
506.348 3.11369e-07 
506.836 3.11411e-07 
507.324 3.11454e-07 
507.812 3.11496e-07 
508.301 3.11539e-07 
508.789 3.11582e-07 
509.277 3.11625e-07 
509.766 3.11668e-07 
510.254 3.11712e-07 
510.742 3.11755e-07 
511.23 3.11799e-07 
511.719 3.11842e-07 
512.207 3.11886e-07 
512.695 3.1193e-07 
513.184 3.11974e-07 
513.672 3.12018e-07 
514.16 3.12062e-07 
514.648 3.12106e-07 
515.137 3.1215e-07 
515.625 3.12194e-07 
516.113 3.12238e-07 
516.602 3.12281e-07 
517.09 3.12325e-07 
517.578 3.12369e-07 
518.066 3.12413e-07 
518.555 3.12457e-07 
519.043 3.125e-07 
519.531 3.12544e-07 
520.02 3.12587e-07 
520.508 3.12631e-07 
520.996 3.12674e-07 
521.484 3.12717e-07 
521.973 3.1276e-07 
522.461 3.12803e-07 
522.949 3.12846e-07 
523.438 3.12889e-07 
523.926 3.12932e-07 
524.414 3.12975e-07 
524.902 3.13018e-07 
525.391 3.13061e-07 
525.879 3.13104e-07 
526.367 3.13147e-07 
526.855 3.1319e-07 
527.344 3.13233e-07 
527.832 3.13276e-07 
528.32 3.13319e-07 
528.809 3.13362e-07 
529.297 3.13405e-07 
529.785 3.13448e-07 
530.273 3.13491e-07 
530.762 3.13535e-07 
531.25 3.13578e-07 
531.738 3.13621e-07 
532.227 3.13665e-07 
532.715 3.13709e-07 
533.203 3.13753e-07 
533.691 3.13797e-07 
534.18 3.13841e-07 
534.668 3.13885e-07 
535.156 3.1393e-07 
535.645 3.13974e-07 
536.133 3.14019e-07 
536.621 3.14063e-07 
537.109 3.14108e-07 
537.598 3.14153e-07 
538.086 3.14198e-07 
538.574 3.14243e-07 
539.062 3.14288e-07 
539.551 3.14334e-07 
540.039 3.14379e-07 
540.527 3.14425e-07 
541.016 3.1447e-07 
541.504 3.14515e-07 
541.992 3.14561e-07 
542.48 3.14606e-07 
542.969 3.14652e-07 
543.457 3.14698e-07 
543.945 3.14743e-07 
544.434 3.14789e-07 
544.922 3.14835e-07 
545.41 3.1488e-07 
545.898 3.14926e-07 
546.387 3.14971e-07 
546.875 3.15017e-07 
547.363 3.15063e-07 
547.852 3.15108e-07 
548.34 3.15154e-07 
548.828 3.15199e-07 
549.316 3.15245e-07 
549.805 3.1529e-07 
550.293 3.15335e-07 
550.781 3.15381e-07 
551.27 3.15426e-07 
551.758 3.15471e-07 
552.246 3.15517e-07 
552.734 3.15562e-07 
553.223 3.15607e-07 
553.711 3.15653e-07 
554.199 3.15698e-07 
554.688 3.15743e-07 
555.176 3.15788e-07 
555.664 3.15834e-07 
556.152 3.15879e-07 
556.641 3.15925e-07 
557.129 3.1597e-07 
557.617 3.16016e-07 
558.105 3.16061e-07 
558.594 3.16107e-07 
559.082 3.16152e-07 
559.57 3.16198e-07 
560.059 3.16244e-07 
560.547 3.1629e-07 
561.035 3.16335e-07 
561.523 3.16382e-07 
562.012 3.16428e-07 
562.5 3.16474e-07 
562.988 3.1652e-07 
563.477 3.16566e-07 
563.965 3.16613e-07 
564.453 3.16659e-07 
564.941 3.16706e-07 
565.43 3.16752e-07 
565.918 3.16799e-07 
566.406 3.16846e-07 
566.895 3.16893e-07 
567.383 3.1694e-07 
567.871 3.16987e-07 
568.359 3.17034e-07 
568.848 3.17081e-07 
569.336 3.17129e-07 
569.824 3.17176e-07 
570.312 3.17223e-07 
570.801 3.17271e-07 
571.289 3.17318e-07 
571.777 3.17366e-07 
572.266 3.17414e-07 
572.754 3.17461e-07 
573.242 3.17509e-07 
573.73 3.17557e-07 
574.219 3.17604e-07 
574.707 3.17652e-07 
575.195 3.177e-07 
575.684 3.17748e-07 
576.172 3.17795e-07 
576.66 3.17843e-07 
577.148 3.17891e-07 
577.637 3.17939e-07 
578.125 3.17987e-07 
578.613 3.18035e-07 
579.102 3.18083e-07 
579.59 3.1813e-07 
580.078 3.18178e-07 
580.566 3.18226e-07 
581.055 3.18274e-07 
581.543 3.18322e-07 
582.031 3.1837e-07 
582.52 3.18417e-07 
583.008 3.18465e-07 
583.496 3.18513e-07 
583.984 3.18561e-07 
584.473 3.18609e-07 
584.961 3.18657e-07 
585.449 3.18705e-07 
585.938 3.18753e-07 
586.426 3.18801e-07 
586.914 3.18849e-07 
587.402 3.18897e-07 
587.891 3.18945e-07 
588.379 3.18994e-07 
588.867 3.19042e-07 
589.355 3.1909e-07 
589.844 3.19139e-07 
590.332 3.19187e-07 
590.82 3.19235e-07 
591.309 3.19284e-07 
591.797 3.19333e-07 
592.285 3.19381e-07 
592.773 3.1943e-07 
593.262 3.19478e-07 
593.75 3.19527e-07 
594.238 3.19576e-07 
594.727 3.19625e-07 
595.215 3.19674e-07 
595.703 3.19723e-07 
596.191 3.19772e-07 
596.68 3.19821e-07 
597.168 3.19871e-07 
597.656 3.1992e-07 
598.145 3.1997e-07 
598.633 3.20019e-07 
599.121 3.20069e-07 
599.609 3.20118e-07 
600.098 3.20168e-07 
600.586 3.20218e-07 
601.074 3.20267e-07 
601.562 3.20317e-07 
602.051 3.20367e-07 
602.539 3.20417e-07 
603.027 3.20467e-07 
603.516 3.20517e-07 
604.004 3.20567e-07 
604.492 3.20618e-07 
604.98 3.20668e-07 
605.469 3.20718e-07 
605.957 3.20768e-07 
606.445 3.20818e-07 
606.934 3.20869e-07 
607.422 3.20919e-07 
607.91 3.2097e-07 
608.398 3.2102e-07 
608.887 3.2107e-07 
609.375 3.21121e-07 
609.863 3.21171e-07 
610.352 3.21222e-07 
610.84 3.21273e-07 
611.328 3.21323e-07 
611.816 3.21374e-07 
612.305 3.21425e-07 
612.793 3.21475e-07 
613.281 3.21526e-07 
613.77 3.21577e-07 
614.258 3.21628e-07 
614.746 3.21678e-07 
615.234 3.21729e-07 
615.723 3.2178e-07 
616.211 3.21831e-07 
616.699 3.21882e-07 
617.188 3.21933e-07 
617.676 3.21984e-07 
618.164 3.22035e-07 
618.652 3.22086e-07 
619.141 3.22137e-07 
619.629 3.22188e-07 
620.117 3.22239e-07 
620.605 3.22291e-07 
621.094 3.22342e-07 
621.582 3.22393e-07 
622.07 3.22445e-07 
622.559 3.22496e-07 
623.047 3.22547e-07 
623.535 3.22599e-07 
624.023 3.2265e-07 
624.512 3.22702e-07 
625 3.22754e-07 
625.488 3.22805e-07 
625.977 3.22857e-07 
626.465 3.22909e-07 
626.953 3.22961e-07 
627.441 3.23013e-07 
627.93 3.23065e-07 
628.418 3.23117e-07 
628.906 3.23169e-07 
629.395 3.23221e-07 
629.883 3.23273e-07 
630.371 3.23326e-07 
630.859 3.23378e-07 
631.348 3.2343e-07 
631.836 3.23483e-07 
632.324 3.23535e-07 
632.812 3.23588e-07 
633.301 3.23641e-07 
633.789 3.23693e-07 
634.277 3.23746e-07 
634.766 3.23799e-07 
635.254 3.23852e-07 
635.742 3.23905e-07 
636.23 3.23958e-07 
636.719 3.24011e-07 
637.207 3.24064e-07 
637.695 3.24117e-07 
638.184 3.2417e-07 
638.672 3.24224e-07 
639.16 3.24277e-07 
639.648 3.2433e-07 
640.137 3.24384e-07 
640.625 3.24437e-07 
641.113 3.24491e-07 
641.602 3.24544e-07 
642.09 3.24598e-07 
642.578 3.24651e-07 
643.066 3.24705e-07 
643.555 3.24759e-07 
644.043 3.24812e-07 
644.531 3.24866e-07 
645.02 3.2492e-07 
645.508 3.24974e-07 
645.996 3.25028e-07 
646.484 3.25082e-07 
646.973 3.25136e-07 
647.461 3.2519e-07 
647.949 3.25244e-07 
648.438 3.25298e-07 
648.926 3.25352e-07 
649.414 3.25407e-07 
649.902 3.25461e-07 
650.391 3.25515e-07 
650.879 3.2557e-07 
651.367 3.25624e-07 
651.855 3.25679e-07 
652.344 3.25733e-07 
652.832 3.25787e-07 
653.32 3.25842e-07 
653.809 3.25897e-07 
654.297 3.25951e-07 
654.785 3.26006e-07 
655.273 3.26061e-07 
655.762 3.26115e-07 
656.25 3.2617e-07 
656.738 3.26225e-07 
657.227 3.2628e-07 
657.715 3.26335e-07 
658.203 3.2639e-07 
658.691 3.26445e-07 
659.18 3.265e-07 
659.668 3.26556e-07 
660.156 3.26611e-07 
660.645 3.26666e-07 
661.133 3.26721e-07 
661.621 3.26777e-07 
662.109 3.26832e-07 
662.598 3.26888e-07 
663.086 3.26943e-07 
663.574 3.26999e-07 
664.062 3.27055e-07 
664.551 3.2711e-07 
665.039 3.27166e-07 
665.527 3.27222e-07 
666.016 3.27278e-07 
666.504 3.27334e-07 
666.992 3.2739e-07 
667.48 3.27446e-07 
667.969 3.27502e-07 
668.457 3.27558e-07 
668.945 3.27615e-07 
669.434 3.27671e-07 
669.922 3.27728e-07 
670.41 3.27784e-07 
670.898 3.27841e-07 
671.387 3.27897e-07 
671.875 3.27954e-07 
672.363 3.28011e-07 
672.852 3.28067e-07 
673.34 3.28124e-07 
673.828 3.28181e-07 
674.316 3.28238e-07 
674.805 3.28295e-07 
675.293 3.28352e-07 
675.781 3.28409e-07 
676.27 3.28466e-07 
676.758 3.28524e-07 
677.246 3.28581e-07 
677.734 3.28639e-07 
678.223 3.28696e-07 
678.711 3.28753e-07 
679.199 3.28811e-07 
679.688 3.28868e-07 
680.176 3.28926e-07 
680.664 3.28984e-07 
681.152 3.29042e-07 
681.641 3.29099e-07 
682.129 3.29157e-07 
682.617 3.29215e-07 
683.105 3.29273e-07 
683.594 3.29331e-07 
684.082 3.29389e-07 
684.57 3.29447e-07 
685.059 3.29505e-07 
685.547 3.29563e-07 
686.035 3.29622e-07 
686.523 3.2968e-07 
687.012 3.29738e-07 
687.5 3.29797e-07 
687.988 3.29855e-07 
688.477 3.29914e-07 
688.965 3.29972e-07 
689.453 3.30031e-07 
689.941 3.30089e-07 
690.43 3.30148e-07 
690.918 3.30207e-07 
691.406 3.30265e-07 
691.895 3.30324e-07 
692.383 3.30383e-07 
692.871 3.30442e-07 
693.359 3.30501e-07 
693.848 3.3056e-07 
694.336 3.30619e-07 
694.824 3.30678e-07 
695.312 3.30737e-07 
695.801 3.30797e-07 
696.289 3.30856e-07 
696.777 3.30915e-07 
697.266 3.30975e-07 
697.754 3.31034e-07 
698.242 3.31094e-07 
698.73 3.31153e-07 
699.219 3.31213e-07 
699.707 3.31273e-07 
700.195 3.31332e-07 
700.684 3.31392e-07 
701.172 3.31452e-07 
701.66 3.31512e-07 
702.148 3.31572e-07 
702.637 3.31632e-07 
703.125 3.31693e-07 
703.613 3.31753e-07 
704.102 3.31813e-07 
704.59 3.31874e-07 
705.078 3.31934e-07 
705.566 3.31995e-07 
706.055 3.32055e-07 
706.543 3.32116e-07 
707.031 3.32177e-07 
707.52 3.32237e-07 
708.008 3.32298e-07 
708.496 3.32359e-07 
708.984 3.3242e-07 
709.473 3.32482e-07 
709.961 3.32543e-07 
710.449 3.32604e-07 
710.938 3.32665e-07 
711.426 3.32727e-07 
711.914 3.32788e-07 
712.402 3.3285e-07 
712.891 3.32911e-07 
713.379 3.32973e-07 
713.867 3.33035e-07 
714.355 3.33096e-07 
714.844 3.33158e-07 
715.332 3.3322e-07 
715.82 3.33282e-07 
716.309 3.33344e-07 
716.797 3.33406e-07 
717.285 3.33468e-07 
717.773 3.3353e-07 
718.262 3.33593e-07 
718.75 3.33655e-07 
719.238 3.33717e-07 
719.727 3.3378e-07 
720.215 3.33842e-07 
720.703 3.33905e-07 
721.191 3.33967e-07 
721.68 3.3403e-07 
722.168 3.34093e-07 
722.656 3.34155e-07 
723.145 3.34218e-07 
723.633 3.34281e-07 
724.121 3.34344e-07 
724.609 3.34407e-07 
725.098 3.3447e-07 
725.586 3.34533e-07 
726.074 3.34596e-07 
726.562 3.34659e-07 
727.051 3.34722e-07 
727.539 3.34785e-07 
728.027 3.34849e-07 
728.516 3.34912e-07 
729.004 3.34975e-07 
729.492 3.35039e-07 
729.98 3.35103e-07 
730.469 3.35166e-07 
730.957 3.3523e-07 
731.445 3.35293e-07 
731.934 3.35357e-07 
732.422 3.35421e-07 
732.91 3.35485e-07 
733.398 3.35549e-07 
733.887 3.35613e-07 
734.375 3.35677e-07 
734.863 3.35741e-07 
735.352 3.35806e-07 
735.84 3.3587e-07 
736.328 3.35935e-07 
736.816 3.35999e-07 
737.305 3.36064e-07 
737.793 3.36128e-07 
738.281 3.36193e-07 
738.77 3.36258e-07 
739.258 3.36323e-07 
739.746 3.36388e-07 
740.234 3.36453e-07 
740.723 3.36518e-07 
741.211 3.36583e-07 
741.699 3.36649e-07 
742.188 3.36714e-07 
742.676 3.3678e-07 
743.164 3.36845e-07 
743.652 3.36911e-07 
744.141 3.36977e-07 
744.629 3.37042e-07 
745.117 3.37108e-07 
745.605 3.37174e-07 
746.094 3.3724e-07 
746.582 3.37307e-07 
747.07 3.37373e-07 
747.559 3.37439e-07 
748.047 3.37505e-07 
748.535 3.37572e-07 
749.023 3.37638e-07 
749.512 3.37705e-07 
750 3.37771e-07 
750.488 3.37838e-07 
750.977 3.37905e-07 
751.465 3.37972e-07 
751.953 3.38038e-07 
752.441 3.38105e-07 
752.93 3.38172e-07 
753.418 3.38239e-07 
753.906 3.38306e-07 
754.395 3.38374e-07 
754.883 3.38441e-07 
755.371 3.38508e-07 
755.859 3.38575e-07 
756.348 3.38643e-07 
756.836 3.3871e-07 
757.324 3.38778e-07 
757.812 3.38845e-07 
758.301 3.38913e-07 
758.789 3.38981e-07 
759.277 3.39048e-07 
759.766 3.39116e-07 
760.254 3.39184e-07 
760.742 3.39252e-07 
761.23 3.3932e-07 
761.719 3.39388e-07 
762.207 3.39456e-07 
762.695 3.39524e-07 
763.184 3.39593e-07 
763.672 3.39661e-07 
764.16 3.39729e-07 
764.648 3.39798e-07 
765.137 3.39866e-07 
765.625 3.39935e-07 
766.113 3.40004e-07 
766.602 3.40072e-07 
767.09 3.40141e-07 
767.578 3.4021e-07 
768.066 3.40279e-07 
768.555 3.40348e-07 
769.043 3.40417e-07 
769.531 3.40487e-07 
770.02 3.40556e-07 
770.508 3.40625e-07 
770.996 3.40695e-07 
771.484 3.40765e-07 
771.973 3.40834e-07 
772.461 3.40904e-07 
772.949 3.40974e-07 
773.438 3.41044e-07 
773.926 3.41114e-07 
774.414 3.41184e-07 
774.902 3.41254e-07 
775.391 3.41324e-07 
775.879 3.41395e-07 
776.367 3.41465e-07 
776.855 3.41536e-07 
777.344 3.41607e-07 
777.832 3.41678e-07 
778.32 3.41749e-07 
778.809 3.41819e-07 
779.297 3.41891e-07 
779.785 3.41962e-07 
780.273 3.42033e-07 
780.762 3.42104e-07 
781.25 3.42175e-07 
781.738 3.42247e-07 
782.227 3.42318e-07 
782.715 3.4239e-07 
783.203 3.42462e-07 
783.691 3.42534e-07 
784.18 3.42605e-07 
784.668 3.42677e-07 
785.156 3.42749e-07 
785.645 3.42821e-07 
786.133 3.42893e-07 
786.621 3.42966e-07 
787.109 3.43038e-07 
787.598 3.4311e-07 
788.086 3.43183e-07 
788.574 3.43255e-07 
789.062 3.43327e-07 
789.551 3.434e-07 
790.039 3.43473e-07 
790.527 3.43545e-07 
791.016 3.43618e-07 
791.504 3.43691e-07 
791.992 3.43764e-07 
792.48 3.43837e-07 
792.969 3.4391e-07 
793.457 3.43983e-07 
793.945 3.44056e-07 
794.434 3.44129e-07 
794.922 3.44203e-07 
795.41 3.44276e-07 
795.898 3.4435e-07 
796.387 3.44423e-07 
796.875 3.44497e-07 
797.363 3.44571e-07 
797.852 3.44644e-07 
798.34 3.44718e-07 
798.828 3.44792e-07 
799.316 3.44867e-07 
799.805 3.44941e-07 
800.293 3.45015e-07 
800.781 3.45089e-07 
801.27 3.45164e-07 
801.758 3.45238e-07 
802.246 3.45313e-07 
802.734 3.45387e-07 
803.223 3.45462e-07 
803.711 3.45537e-07 
804.199 3.45612e-07 
804.688 3.45687e-07 
805.176 3.45762e-07 
805.664 3.45838e-07 
806.152 3.45913e-07 
806.641 3.45989e-07 
807.129 3.46064e-07 
807.617 3.4614e-07 
808.105 3.46216e-07 
808.594 3.46292e-07 
809.082 3.46368e-07 
809.57 3.46444e-07 
810.059 3.4652e-07 
810.547 3.46596e-07 
811.035 3.46673e-07 
811.523 3.46749e-07 
812.012 3.46826e-07 
812.5 3.46903e-07 
812.988 3.4698e-07 
813.477 3.47056e-07 
813.965 3.47133e-07 
814.453 3.4721e-07 
814.941 3.47288e-07 
815.43 3.47365e-07 
815.918 3.47442e-07 
816.406 3.4752e-07 
816.895 3.47597e-07 
817.383 3.47675e-07 
817.871 3.47752e-07 
818.359 3.4783e-07 
818.848 3.47908e-07 
819.336 3.47986e-07 
819.824 3.48064e-07 
820.312 3.48142e-07 
820.801 3.4822e-07 
821.289 3.48298e-07 
821.777 3.48376e-07 
822.266 3.48455e-07 
822.754 3.48533e-07 
823.242 3.48612e-07 
823.73 3.4869e-07 
824.219 3.48769e-07 
824.707 3.48848e-07 
825.195 3.48926e-07 
825.684 3.49005e-07 
826.172 3.49084e-07 
826.66 3.49163e-07 
827.148 3.49243e-07 
827.637 3.49322e-07 
828.125 3.49401e-07 
828.613 3.49481e-07 
829.102 3.4956e-07 
829.59 3.4964e-07 
830.078 3.49719e-07 
830.566 3.49799e-07 
831.055 3.49879e-07 
831.543 3.49959e-07 
832.031 3.50039e-07 
832.52 3.50119e-07 
833.008 3.50199e-07 
833.496 3.5028e-07 
833.984 3.5036e-07 
834.473 3.50441e-07 
834.961 3.50522e-07 
835.449 3.50603e-07 
835.938 3.50683e-07 
836.426 3.50764e-07 
836.914 3.50846e-07 
837.402 3.50927e-07 
837.891 3.51008e-07 
838.379 3.5109e-07 
838.867 3.51172e-07 
839.355 3.51253e-07 
839.844 3.51335e-07 
840.332 3.51417e-07 
840.82 3.51499e-07 
841.309 3.51581e-07 
841.797 3.51664e-07 
842.285 3.51746e-07 
842.773 3.51829e-07 
843.262 3.51912e-07 
843.75 3.51994e-07 
844.238 3.52077e-07 
844.727 3.5216e-07 
845.215 3.52243e-07 
845.703 3.52327e-07 
846.191 3.5241e-07 
846.68 3.52493e-07 
847.168 3.52577e-07 
847.656 3.5266e-07 
848.145 3.52744e-07 
848.633 3.52828e-07 
849.121 3.52912e-07 
849.609 3.52996e-07 
850.098 3.5308e-07 
850.586 3.53164e-07 
851.074 3.53248e-07 
851.562 3.53332e-07 
852.051 3.53417e-07 
852.539 3.53501e-07 
853.027 3.53586e-07 
853.516 3.53671e-07 
854.004 3.53755e-07 
854.492 3.5384e-07 
854.98 3.53925e-07 
855.469 3.5401e-07 
855.957 3.54095e-07 
856.445 3.5418e-07 
856.934 3.54265e-07 
857.422 3.54351e-07 
857.91 3.54436e-07 
858.398 3.54522e-07 
858.887 3.54607e-07 
859.375 3.54693e-07 
859.863 3.54779e-07 
860.352 3.54865e-07 
860.84 3.54951e-07 
861.328 3.55037e-07 
861.816 3.55123e-07 
862.305 3.5521e-07 
862.793 3.55296e-07 
863.281 3.55383e-07 
863.77 3.5547e-07 
864.258 3.55557e-07 
864.746 3.55643e-07 
865.234 3.55731e-07 
865.723 3.55818e-07 
866.211 3.55905e-07 
866.699 3.55993e-07 
867.188 3.56081e-07 
867.676 3.56168e-07 
868.164 3.56256e-07 
868.652 3.56344e-07 
869.141 3.56432e-07 
869.629 3.56521e-07 
870.117 3.56609e-07 
870.605 3.56698e-07 
871.094 3.56787e-07 
871.582 3.56876e-07 
872.07 3.56964e-07 
872.559 3.57053e-07 
873.047 3.57143e-07 
873.535 3.57232e-07 
874.023 3.57322e-07 
874.512 3.57411e-07 
875 3.57501e-07 
875.488 3.57591e-07 
875.977 3.57681e-07 
876.465 3.57772e-07 
876.953 3.57862e-07 
877.441 3.57952e-07 
877.93 3.58043e-07 
878.418 3.58133e-07 
878.906 3.58224e-07 
879.395 3.58315e-07 
879.883 3.58406e-07 
880.371 3.58497e-07 
880.859 3.58588e-07 
881.348 3.58679e-07 
881.836 3.5877e-07 
882.324 3.58862e-07 
882.812 3.58953e-07 
883.301 3.59045e-07 
883.789 3.59137e-07 
884.277 3.59228e-07 
884.766 3.5932e-07 
885.254 3.59412e-07 
885.742 3.59504e-07 
886.23 3.59596e-07 
886.719 3.59689e-07 
887.207 3.59781e-07 
887.695 3.59873e-07 
888.184 3.59966e-07 
888.672 3.60059e-07 
889.16 3.60152e-07 
889.648 3.60244e-07 
890.137 3.60337e-07 
890.625 3.6043e-07 
891.113 3.60524e-07 
891.602 3.60617e-07 
892.09 3.6071e-07 
892.578 3.60804e-07 
893.066 3.60898e-07 
893.555 3.60992e-07 
894.043 3.61085e-07 
894.531 3.6118e-07 
895.02 3.61274e-07 
895.508 3.61368e-07 
895.996 3.61463e-07 
896.484 3.61558e-07 
896.973 3.61653e-07 
897.461 3.61748e-07 
897.949 3.61843e-07 
898.438 3.61938e-07 
898.926 3.62034e-07 
899.414 3.6213e-07 
899.902 3.62226e-07 
900.391 3.62322e-07 
900.879 3.62418e-07 
901.367 3.62514e-07 
901.855 3.62611e-07 
902.344 3.62708e-07 
902.832 3.62804e-07 
903.32 3.62902e-07 
903.809 3.62999e-07 
904.297 3.63096e-07 
904.785 3.63194e-07 
905.273 3.63291e-07 
905.762 3.63389e-07 
906.25 3.63487e-07 
906.738 3.63586e-07 
907.227 3.63684e-07 
907.715 3.63782e-07 
908.203 3.63881e-07 
908.691 3.63979e-07 
909.18 3.64078e-07 
909.668 3.64177e-07 
910.156 3.64276e-07 
910.645 3.64375e-07 
911.133 3.64475e-07 
911.621 3.64574e-07 
912.109 3.64674e-07 
912.598 3.64773e-07 
913.086 3.64873e-07 
913.574 3.64972e-07 
914.062 3.65072e-07 
914.551 3.65172e-07 
915.039 3.65272e-07 
915.527 3.65372e-07 
916.016 3.65472e-07 
916.504 3.65573e-07 
916.992 3.65673e-07 
917.48 3.65774e-07 
917.969 3.65874e-07 
918.457 3.65975e-07 
918.945 3.66076e-07 
919.434 3.66177e-07 
919.922 3.66278e-07 
920.41 3.66379e-07 
920.898 3.6648e-07 
921.387 3.66582e-07 
921.875 3.66684e-07 
922.363 3.66785e-07 
922.852 3.66887e-07 
923.34 3.66989e-07 
923.828 3.67091e-07 
924.316 3.67194e-07 
924.805 3.67296e-07 
925.293 3.67399e-07 
925.781 3.67502e-07 
926.27 3.67605e-07 
926.758 3.67708e-07 
927.246 3.67812e-07 
927.734 3.67915e-07 
928.223 3.68019e-07 
928.711 3.68123e-07 
929.199 3.68228e-07 
929.688 3.68332e-07 
930.176 3.68437e-07 
930.664 3.68542e-07 
931.152 3.68647e-07 
931.641 3.68752e-07 
932.129 3.68858e-07 
932.617 3.68964e-07 
933.105 3.6907e-07 
933.594 3.69176e-07 
934.082 3.69282e-07 
934.57 3.69389e-07 
935.059 3.69496e-07 
935.547 3.69603e-07 
936.035 3.6971e-07 
936.523 3.69817e-07 
937.012 3.69924e-07 
937.5 3.70032e-07 
937.988 3.7014e-07 
938.477 3.70248e-07 
938.965 3.70356e-07 
939.453 3.70464e-07 
939.941 3.70573e-07 
940.43 3.70681e-07 
940.918 3.7079e-07 
941.406 3.70898e-07 
941.895 3.71007e-07 
942.383 3.71116e-07 
942.871 3.71225e-07 
943.359 3.71334e-07 
943.848 3.71444e-07 
944.336 3.71553e-07 
944.824 3.71662e-07 
945.312 3.71772e-07 
945.801 3.71881e-07 
946.289 3.71991e-07 
946.777 3.72101e-07 
947.266 3.7221e-07 
947.754 3.7232e-07 
948.242 3.7243e-07 
948.73 3.72541e-07 
949.219 3.72651e-07 
949.707 3.72761e-07 
950.195 3.72872e-07 
950.684 3.72982e-07 
951.172 3.73093e-07 
951.66 3.73204e-07 
952.148 3.73315e-07 
952.637 3.73426e-07 
953.125 3.73538e-07 
953.613 3.73649e-07 
954.102 3.73761e-07 
954.59 3.73873e-07 
955.078 3.73985e-07 
955.566 3.74098e-07 
956.055 3.7421e-07 
956.543 3.74323e-07 
957.031 3.74437e-07 
957.52 3.7455e-07 
958.008 3.74664e-07 
958.496 3.74778e-07 
958.984 3.74892e-07 
959.473 3.75006e-07 
959.961 3.75121e-07 
960.449 3.75236e-07 
960.938 3.75351e-07 
961.426 3.75467e-07 
961.914 3.75583e-07 
962.402 3.75699e-07 
962.891 3.75815e-07 
963.379 3.75932e-07 
963.867 3.76048e-07 
964.355 3.76166e-07 
964.844 3.76283e-07 
965.332 3.76401e-07 
965.82 3.76518e-07 
966.309 3.76636e-07 
966.797 3.76754e-07 
967.285 3.76873e-07 
967.773 3.76991e-07 
968.262 3.7711e-07 
968.75 3.77229e-07 
969.238 3.77348e-07 
