#energy geo_1 
500 4.5658e-07 
500.488 4.53381e-07 
500.977 4.50373e-07 
501.465 4.47558e-07 
501.953 4.44949e-07 
502.441 4.42575e-07 
502.93 4.40483e-07 
503.418 4.38739e-07 
503.906 4.37434e-07 
504.395 4.3669e-07 
504.883 4.36664e-07 
505.371 4.37548e-07 
505.859 4.39564e-07 
506.348 4.42953e-07 
506.836 4.47967e-07 
507.324 4.54864e-07 
507.812 4.63919e-07 
508.301 4.75445e-07 
508.789 4.89826e-07 
509.277 5.07549e-07 
509.766 5.29248e-07 
510.254 5.55731e-07 
510.742 5.88041e-07 
511.23 6.27473e-07 
511.719 6.75603e-07 
512.207 7.34248e-07 
512.695 8.05269e-07 
513.184 8.90117e-07 
513.672 9.88815e-07 
514.16 1.09825e-06 
514.648 1.20987e-06 
515.137 1.30824e-06 
515.625 1.37319e-06 
516.113 1.38767e-06 
516.602 1.34737e-06 
517.09 1.26352e-06 
517.578 1.15586e-06 
518.066 1.04295e-06 
518.555 9.36949e-07 
519.043 8.4359e-07 
519.531 7.64261e-07 
520.02 6.98093e-07 
520.508 6.4335e-07 
520.996 5.98135e-07 
521.484 5.60707e-07 
521.973 5.29589e-07 
522.461 5.03568e-07 
522.949 4.81675e-07 
523.438 4.63135e-07 
523.926 4.47333e-07 
524.414 4.33781e-07 
524.902 4.2209e-07 
525.391 4.11944e-07 
525.879 4.03093e-07 
526.367 3.9533e-07 
526.855 3.88491e-07 
527.344 3.82438e-07 
527.832 3.77057e-07 
528.32 3.72256e-07 
528.809 3.67955e-07 
529.297 3.64089e-07 
529.785 3.60603e-07 
530.273 3.5745e-07 
530.762 3.5459e-07 
531.25 3.51988e-07 
531.738 3.49616e-07 
532.227 3.47446e-07 
532.715 3.45459e-07 
533.203 3.43634e-07 
533.691 3.41955e-07 
534.18 3.40408e-07 
534.668 3.38979e-07 
535.156 3.37657e-07 
535.645 3.36433e-07 
536.133 3.35297e-07 
536.621 3.34242e-07 
537.109 3.3326e-07 
537.598 3.32345e-07 
538.086 3.31492e-07 
538.574 3.30696e-07 
539.062 3.29952e-07 
539.551 3.29256e-07 
540.039 3.28604e-07 
540.527 3.27993e-07 
541.016 3.27421e-07 
541.504 3.26883e-07 
541.992 3.26378e-07 
542.48 3.25904e-07 
542.969 3.25458e-07 
543.457 3.25038e-07 
543.945 3.24643e-07 
544.434 3.24271e-07 
544.922 3.23921e-07 
545.41 3.2359e-07 
545.898 3.23279e-07 
546.387 3.22986e-07 
546.875 3.22709e-07 
547.363 3.22448e-07 
547.852 3.22201e-07 
548.34 3.21969e-07 
548.828 3.2175e-07 
549.316 3.21543e-07 
549.805 3.21348e-07 
550.293 3.21164e-07 
550.781 3.20991e-07 
551.27 3.20828e-07 
551.758 3.20673e-07 
552.246 3.20528e-07 
552.734 3.20392e-07 
553.223 3.20264e-07 
553.711 3.20143e-07 
554.199 3.20029e-07 
554.688 3.19923e-07 
555.176 3.19823e-07 
555.664 3.1973e-07 
556.152 3.19643e-07 
556.641 3.19561e-07 
557.129 3.19485e-07 
557.617 3.19414e-07 
558.105 3.19349e-07 
558.594 3.19288e-07 
559.082 3.19232e-07 
559.57 3.1918e-07 
560.059 3.19133e-07 
560.547 3.1909e-07 
561.035 3.19051e-07 
561.523 3.19016e-07 
562.012 3.18984e-07 
562.5 3.18956e-07 
562.988 3.18932e-07 
563.477 3.1891e-07 
563.965 3.18892e-07 
564.453 3.18877e-07 
564.941 3.18865e-07 
565.43 3.18856e-07 
565.918 3.1885e-07 
566.406 3.18846e-07 
566.895 3.18845e-07 
567.383 3.18847e-07 
567.871 3.18851e-07 
568.359 3.18857e-07 
568.848 3.18865e-07 
569.336 3.18876e-07 
569.824 3.18889e-07 
570.312 3.18904e-07 
570.801 3.18921e-07 
571.289 3.1894e-07 
571.777 3.1896e-07 
572.266 3.18983e-07 
572.754 3.19007e-07 
573.242 3.19033e-07 
573.73 3.19061e-07 
574.219 3.1909e-07 
574.707 3.19121e-07 
575.195 3.19153e-07 
575.684 3.19186e-07 
576.172 3.19221e-07 
576.66 3.19257e-07 
577.148 3.19295e-07 
577.637 3.19334e-07 
578.125 3.19374e-07 
578.613 3.19416e-07 
579.102 3.19458e-07 
579.59 3.19502e-07 
580.078 3.19546e-07 
580.566 3.19592e-07 
581.055 3.19639e-07 
581.543 3.19687e-07 
582.031 3.19735e-07 
582.52 3.19785e-07 
583.008 3.19836e-07 
583.496 3.19887e-07 
583.984 3.19939e-07 
584.473 3.19993e-07 
584.961 3.20047e-07 
585.449 3.20102e-07 
585.938 3.20158e-07 
586.426 3.20214e-07 
586.914 3.20272e-07 
587.402 3.2033e-07 
587.891 3.2039e-07 
588.379 3.20449e-07 
588.867 3.2051e-07 
589.355 3.20572e-07 
589.844 3.20634e-07 
590.332 3.20697e-07 
590.82 3.20761e-07 
591.309 3.20825e-07 
591.797 3.2089e-07 
592.285 3.20957e-07 
592.773 3.21023e-07 
593.262 3.2109e-07 
593.75 3.21159e-07 
594.238 3.21228e-07 
594.727 3.21297e-07 
595.215 3.21367e-07 
595.703 3.21438e-07 
596.191 3.2151e-07 
596.68 3.21582e-07 
597.168 3.21655e-07 
597.656 3.21728e-07 
598.145 3.21802e-07 
598.633 3.21877e-07 
599.121 3.21952e-07 
599.609 3.22028e-07 
600.098 3.22105e-07 
600.586 3.22182e-07 
601.074 3.22259e-07 
601.562 3.22338e-07 
602.051 3.22416e-07 
602.539 3.22495e-07 
603.027 3.22575e-07 
603.516 3.22655e-07 
604.004 3.22736e-07 
604.492 3.22817e-07 
604.98 3.22898e-07 
605.469 3.2298e-07 
605.957 3.23062e-07 
606.445 3.23145e-07 
606.934 3.23228e-07 
607.422 3.23312e-07 
607.91 3.23396e-07 
608.398 3.2348e-07 
608.887 3.23564e-07 
609.375 3.23649e-07 
609.863 3.23735e-07 
610.352 3.23821e-07 
610.84 3.23907e-07 
611.328 3.23993e-07 
611.816 3.2408e-07 
612.305 3.24167e-07 
612.793 3.24255e-07 
613.281 3.24343e-07 
613.77 3.24431e-07 
614.258 3.24519e-07 
614.746 3.24608e-07 
615.234 3.24698e-07 
615.723 3.24788e-07 
616.211 3.24878e-07 
616.699 3.24969e-07 
617.188 3.2506e-07 
617.676 3.25151e-07 
618.164 3.25243e-07 
618.652 3.25335e-07 
619.141 3.25428e-07 
619.629 3.25522e-07 
620.117 3.25615e-07 
620.605 3.25709e-07 
621.094 3.25804e-07 
621.582 3.25899e-07 
622.07 3.25994e-07 
622.559 3.2609e-07 
623.047 3.26186e-07 
623.535 3.26283e-07 
624.023 3.2638e-07 
624.512 3.26477e-07 
625 3.26575e-07 
625.488 3.26674e-07 
625.977 3.26773e-07 
626.465 3.26872e-07 
626.953 3.26971e-07 
627.441 3.27071e-07 
627.93 3.27171e-07 
628.418 3.27272e-07 
628.906 3.27373e-07 
629.395 3.27474e-07 
629.883 3.27576e-07 
630.371 3.27678e-07 
630.859 3.2778e-07 
631.348 3.27882e-07 
631.836 3.27985e-07 
632.324 3.28088e-07 
632.812 3.28191e-07 
633.301 3.28295e-07 
633.789 3.28399e-07 
634.277 3.28503e-07 
634.766 3.28607e-07 
635.254 3.28712e-07 
635.742 3.28817e-07 
636.23 3.28922e-07 
636.719 3.29027e-07 
637.207 3.29133e-07 
637.695 3.29239e-07 
638.184 3.29346e-07 
638.672 3.29452e-07 
639.16 3.29559e-07 
639.648 3.29666e-07 
640.137 3.29774e-07 
640.625 3.29882e-07 
641.113 3.2999e-07 
641.602 3.30099e-07 
642.09 3.30208e-07 
642.578 3.30317e-07 
643.066 3.30427e-07 
643.555 3.30537e-07 
644.043 3.30647e-07 
644.531 3.30758e-07 
645.02 3.3087e-07 
645.508 3.30981e-07 
645.996 3.31093e-07 
646.484 3.31206e-07 
646.973 3.31319e-07 
647.461 3.31432e-07 
647.949 3.31546e-07 
648.438 3.3166e-07 
648.926 3.31775e-07 
649.414 3.3189e-07 
649.902 3.32006e-07 
650.391 3.32121e-07 
650.879 3.32238e-07 
651.367 3.32354e-07 
651.855 3.32471e-07 
652.344 3.32589e-07 
652.832 3.32706e-07 
653.32 3.32824e-07 
653.809 3.32943e-07 
654.297 3.33061e-07 
654.785 3.3318e-07 
655.273 3.333e-07 
655.762 3.33419e-07 
656.25 3.33539e-07 
656.738 3.33659e-07 
657.227 3.33779e-07 
657.715 3.339e-07 
658.203 3.34021e-07 
658.691 3.34142e-07 
659.18 3.34263e-07 
659.668 3.34385e-07 
660.156 3.34507e-07 
660.645 3.34629e-07 
661.133 3.34751e-07 
661.621 3.34874e-07 
662.109 3.34997e-07 
662.598 3.35121e-07 
663.086 3.35244e-07 
663.574 3.35368e-07 
664.062 3.35493e-07 
664.551 3.35617e-07 
665.039 3.35742e-07 
665.527 3.35868e-07 
666.016 3.35993e-07 
666.504 3.3612e-07 
666.992 3.36246e-07 
667.48 3.36373e-07 
667.969 3.36501e-07 
668.457 3.36629e-07 
668.945 3.36757e-07 
669.434 3.36886e-07 
669.922 3.37015e-07 
670.41 3.37145e-07 
670.898 3.37275e-07 
671.387 3.37406e-07 
671.875 3.37537e-07 
672.363 3.37669e-07 
672.852 3.37801e-07 
673.34 3.37933e-07 
673.828 3.38066e-07 
674.316 3.382e-07 
674.805 3.38334e-07 
675.293 3.38468e-07 
675.781 3.38603e-07 
676.27 3.38738e-07 
676.758 3.38873e-07 
677.246 3.39009e-07 
677.734 3.39145e-07 
678.223 3.39282e-07 
678.711 3.39419e-07 
679.199 3.39556e-07 
679.688 3.39694e-07 
680.176 3.39832e-07 
680.664 3.3997e-07 
681.152 3.40108e-07 
681.641 3.40247e-07 
682.129 3.40386e-07 
682.617 3.40526e-07 
683.105 3.40665e-07 
683.594 3.40805e-07 
684.082 3.40946e-07 
684.57 3.41087e-07 
685.059 3.41228e-07 
685.547 3.41369e-07 
686.035 3.41511e-07 
686.523 3.41653e-07 
687.012 3.41796e-07 
687.5 3.41939e-07 
687.988 3.42082e-07 
688.477 3.42226e-07 
688.965 3.42371e-07 
689.453 3.42515e-07 
689.941 3.42661e-07 
690.43 3.42807e-07 
690.918 3.42953e-07 
691.406 3.431e-07 
691.895 3.43247e-07 
692.383 3.43395e-07 
692.871 3.43544e-07 
693.359 3.43693e-07 
693.848 3.43842e-07 
694.336 3.43993e-07 
694.824 3.44143e-07 
695.312 3.44294e-07 
695.801 3.44446e-07 
696.289 3.44599e-07 
696.777 3.44751e-07 
697.266 3.44905e-07 
697.754 3.45059e-07 
698.242 3.45213e-07 
698.73 3.45367e-07 
699.219 3.45523e-07 
699.707 3.45678e-07 
700.195 3.45834e-07 
700.684 3.45991e-07 
701.172 3.46147e-07 
701.66 3.46305e-07 
702.148 3.46462e-07 
702.637 3.4662e-07 
703.125 3.46779e-07 
703.613 3.46937e-07 
704.102 3.47096e-07 
704.59 3.47256e-07 
705.078 3.47416e-07 
705.566 3.47576e-07 
706.055 3.47736e-07 
706.543 3.47897e-07 
707.031 3.48059e-07 
707.52 3.48221e-07 
708.008 3.48383e-07 
708.496 3.48546e-07 
708.984 3.48709e-07 
709.473 3.48873e-07 
709.961 3.49037e-07 
710.449 3.49202e-07 
710.938 3.49368e-07 
711.426 3.49534e-07 
711.914 3.49701e-07 
712.402 3.49868e-07 
712.891 3.50036e-07 
713.379 3.50205e-07 
713.867 3.50374e-07 
714.355 3.50544e-07 
714.844 3.50715e-07 
715.332 3.50886e-07 
715.82 3.51059e-07 
716.309 3.51231e-07 
716.797 3.51405e-07 
717.285 3.51579e-07 
717.773 3.51753e-07 
718.262 3.51929e-07 
718.75 3.52104e-07 
719.238 3.52281e-07 
719.727 3.52458e-07 
720.215 3.52635e-07 
720.703 3.52813e-07 
721.191 3.52991e-07 
721.68 3.5317e-07 
722.168 3.5335e-07 
722.656 3.5353e-07 
723.145 3.5371e-07 
723.633 3.53891e-07 
724.121 3.54072e-07 
724.609 3.54253e-07 
725.098 3.54435e-07 
725.586 3.54618e-07 
726.074 3.54801e-07 
726.562 3.54985e-07 
727.051 3.55169e-07 
727.539 3.55353e-07 
728.027 3.55538e-07 
728.516 3.55724e-07 
729.004 3.5591e-07 
729.492 3.56097e-07 
729.98 3.56285e-07 
730.469 3.56473e-07 
730.957 3.56662e-07 
731.445 3.56852e-07 
731.934 3.57043e-07 
732.422 3.57234e-07 
732.91 3.57426e-07 
733.398 3.57619e-07 
733.887 3.57813e-07 
734.375 3.58008e-07 
734.863 3.58203e-07 
735.352 3.584e-07 
735.84 3.58597e-07 
736.328 3.58795e-07 
736.816 3.58994e-07 
737.305 3.59193e-07 
737.793 3.59393e-07 
738.281 3.59595e-07 
738.77 3.59796e-07 
739.258 3.59999e-07 
739.746 3.60202e-07 
740.234 3.60406e-07 
740.723 3.60611e-07 
741.211 3.60816e-07 
741.699 3.61022e-07 
742.188 3.61228e-07 
742.676 3.61435e-07 
743.164 3.61642e-07 
743.652 3.61851e-07 
744.141 3.62059e-07 
744.629 3.62269e-07 
745.117 3.62479e-07 
745.605 3.62689e-07 
746.094 3.629e-07 
746.582 3.63112e-07 
747.07 3.63325e-07 
747.559 3.63538e-07 
748.047 3.63752e-07 
748.535 3.63967e-07 
749.023 3.64183e-07 
749.512 3.64399e-07 
750 3.64617e-07 
750.488 3.64836e-07 
750.977 3.65055e-07 
751.465 3.65275e-07 
751.953 3.65497e-07 
752.441 3.6572e-07 
752.93 3.65943e-07 
753.418 3.66168e-07 
753.906 3.66393e-07 
754.395 3.6662e-07 
754.883 3.66848e-07 
755.371 3.67076e-07 
755.859 3.67306e-07 
756.348 3.67537e-07 
756.836 3.67768e-07 
757.324 3.68001e-07 
757.812 3.68234e-07 
758.301 3.68469e-07 
758.789 3.68704e-07 
759.277 3.6894e-07 
759.766 3.69177e-07 
760.254 3.69414e-07 
760.742 3.69653e-07 
761.23 3.69892e-07 
761.719 3.70132e-07 
762.207 3.70373e-07 
762.695 3.70615e-07 
763.184 3.70858e-07 
763.672 3.71102e-07 
764.16 3.71347e-07 
764.648 3.71593e-07 
765.137 3.7184e-07 
765.625 3.72088e-07 
766.113 3.72337e-07 
766.602 3.72587e-07 
767.09 3.72839e-07 
767.578 3.73092e-07 
768.066 3.73346e-07 
768.555 3.73602e-07 
769.043 3.73859e-07 
769.531 3.74118e-07 
770.02 3.74377e-07 
770.508 3.74638e-07 
770.996 3.74901e-07 
771.484 3.75164e-07 
771.973 3.75429e-07 
772.461 3.75695e-07 
772.949 3.75962e-07 
773.438 3.7623e-07 
773.926 3.76499e-07 
774.414 3.7677e-07 
774.902 3.7704e-07 
775.391 3.77312e-07 
775.879 3.77585e-07 
776.367 3.77858e-07 
776.855 3.78132e-07 
777.344 3.78406e-07 
777.832 3.78681e-07 
778.32 3.78957e-07 
778.809 3.79234e-07 
779.297 3.79511e-07 
779.785 3.79789e-07 
780.273 3.80068e-07 
780.762 3.80348e-07 
781.25 3.80629e-07 
781.738 3.80911e-07 
782.227 3.81194e-07 
782.715 3.81479e-07 
783.203 3.81765e-07 
783.691 3.82053e-07 
784.18 3.82343e-07 
784.668 3.82635e-07 
785.156 3.82928e-07 
785.645 3.83224e-07 
786.133 3.83522e-07 
786.621 3.83823e-07 
787.109 3.84125e-07 
787.598 3.84431e-07 
788.086 3.84738e-07 
788.574 3.85049e-07 
789.062 3.85362e-07 
789.551 3.85677e-07 
790.039 3.85995e-07 
790.527 3.86316e-07 
791.016 3.86639e-07 
791.504 3.86965e-07 
791.992 3.87293e-07 
792.48 3.87624e-07 
792.969 3.87957e-07 
793.457 3.88292e-07 
793.945 3.8863e-07 
794.434 3.8897e-07 
794.922 3.89312e-07 
795.41 3.89657e-07 
795.898 3.90003e-07 
796.387 3.90352e-07 
796.875 3.90703e-07 
797.363 3.91056e-07 
797.852 3.9141e-07 
798.34 3.91767e-07 
798.828 3.92125e-07 
799.316 3.92484e-07 
799.805 3.92845e-07 
800.293 3.93207e-07 
800.781 3.9357e-07 
801.27 3.93935e-07 
801.758 3.94299e-07 
802.246 3.94664e-07 
802.734 3.9503e-07 
803.223 3.95395e-07 
803.711 3.95761e-07 
804.199 3.96126e-07 
804.688 3.96491e-07 
805.176 3.96855e-07 
805.664 3.97219e-07 
806.152 3.97582e-07 
806.641 3.97944e-07 
807.129 3.98306e-07 
807.617 3.98668e-07 
808.105 3.99029e-07 
808.594 3.99391e-07 
809.082 3.99752e-07 
809.57 4.00115e-07 
810.059 4.00479e-07 
810.547 4.00844e-07 
811.035 4.01211e-07 
811.523 4.01581e-07 
812.012 4.01954e-07 
812.5 4.02331e-07 
812.988 4.02711e-07 
813.477 4.03097e-07 
813.965 4.03488e-07 
814.453 4.03885e-07 
814.941 4.04288e-07 
815.43 4.04698e-07 
815.918 4.05116e-07 
816.406 4.05541e-07 
816.895 4.05974e-07 
817.383 4.06415e-07 
817.871 4.06865e-07 
818.359 4.07323e-07 
818.848 4.0779e-07 
819.336 4.08266e-07 
819.824 4.0875e-07 
820.312 4.09243e-07 
820.801 4.09743e-07 
821.289 4.10252e-07 
821.777 4.10768e-07 
822.266 4.1129e-07 
822.754 4.11818e-07 
823.242 4.12351e-07 
823.73 4.12888e-07 
824.219 4.13429e-07 
824.707 4.13972e-07 
825.195 4.14516e-07 
825.684 4.1506e-07 
826.172 4.15603e-07 
826.66 4.16144e-07 
827.148 4.16682e-07 
827.637 4.17217e-07 
828.125 4.17747e-07 
828.613 4.18272e-07 
829.102 4.18792e-07 
829.59 4.19307e-07 
830.078 4.19818e-07 
830.566 4.20325e-07 
831.055 4.20828e-07 
831.543 4.2133e-07 
832.031 4.21832e-07 
832.52 4.22335e-07 
833.008 4.22841e-07 
833.496 4.23351e-07 
833.984 4.23869e-07 
834.473 4.24396e-07 
834.961 4.24934e-07 
835.449 4.25484e-07 
835.938 4.26046e-07 
836.426 4.26624e-07 
836.914 4.27216e-07 
837.402 4.27823e-07 
837.891 4.28445e-07 
838.379 4.29081e-07 
838.867 4.29731e-07 
839.355 4.30392e-07 
839.844 4.31064e-07 
840.332 4.31746e-07 
840.82 4.32435e-07 
841.309 4.3313e-07 
841.797 4.33831e-07 
842.285 4.34537e-07 
842.773 4.35247e-07 
843.262 4.35963e-07 
843.75 4.36687e-07 
844.238 4.37421e-07 
844.727 4.38165e-07 
845.215 4.38917e-07 
845.703 4.39673e-07 
846.191 4.40436e-07 
846.68 4.41217e-07 
847.168 4.42022e-07 
847.656 4.4284e-07 
848.145 4.43667e-07 
848.633 4.44512e-07 
849.121 4.45373e-07 
849.609 4.46246e-07 
850.098 4.47139e-07 
850.586 4.4805e-07 
851.074 4.48969e-07 
851.562 4.49907e-07 
852.051 4.50862e-07 
852.539 4.51824e-07 
853.027 4.52787e-07 
853.516 4.5376e-07 
854.004 4.54745e-07 
854.492 4.55725e-07 
854.98 4.56699e-07 
855.469 4.57679e-07 
855.957 4.58667e-07 
856.445 4.59653e-07 
856.934 4.60626e-07 
857.422 4.61597e-07 
857.91 4.62571e-07 
858.398 4.63542e-07 
858.887 4.64494e-07 
859.375 4.6543e-07 
859.863 4.66368e-07 
860.352 4.67316e-07 
860.84 4.68265e-07 
861.328 4.69205e-07 
861.816 4.70142e-07 
862.305 4.7109e-07 
862.793 4.72052e-07 
863.281 4.73019e-07 
863.77 4.73978e-07 
864.258 4.74934e-07 
864.746 4.75904e-07 
865.234 4.76893e-07 
865.723 4.7789e-07 
866.211 4.78882e-07 
866.699 4.7987e-07 
867.188 4.80872e-07 
867.676 4.819e-07 
868.164 4.82948e-07 
868.652 4.84002e-07 
869.141 4.85055e-07 
869.629 4.86119e-07 
870.117 4.87206e-07 
870.605 4.88319e-07 
871.094 4.89444e-07 
871.582 4.9057e-07 
872.07 4.91699e-07 
872.559 4.92847e-07 
873.047 4.94025e-07 
873.535 4.95229e-07 
874.023 4.96443e-07 
874.512 4.97659e-07 
875 4.98883e-07 
875.488 5.0013e-07 
875.977 5.01402e-07 
876.465 5.02688e-07 
876.953 5.03978e-07 
877.441 5.05271e-07 
877.93 5.06586e-07 
878.418 5.07938e-07 
878.906 5.09329e-07 
879.395 5.1075e-07 
879.883 5.12192e-07 
880.371 5.13665e-07 
880.859 5.15183e-07 
881.348 5.1675e-07 
881.836 5.18352e-07 
882.324 5.19965e-07 
882.812 5.21581e-07 
883.301 5.23209e-07 
883.789 5.24869e-07 
884.277 5.26571e-07 
884.766 5.28314e-07 
885.254 5.30091e-07 
885.742 5.3191e-07 
886.23 5.33784e-07 
886.719 5.35724e-07 
887.207 5.37715e-07 
887.695 5.3973e-07 
888.184 5.41746e-07 
888.672 5.43762e-07 
889.16 5.45785e-07 
889.648 5.47819e-07 
890.137 5.49845e-07 
890.625 5.51845e-07 
891.113 5.53807e-07 
891.602 5.55729e-07 
892.09 5.576e-07 
892.578 5.59398e-07 
893.066 5.61084e-07 
893.555 5.62618e-07 
894.043 5.63973e-07 
894.531 5.65133e-07 
895.02 5.66092e-07 
895.508 5.66873e-07 
895.996 5.6756e-07 
896.484 5.68288e-07 
896.973 5.69179e-07 
897.461 5.70255e-07 
897.949 5.71446e-07 
898.438 5.72662e-07 
898.926 5.73856e-07 
899.414 5.75034e-07 
899.902 5.76218e-07 
900.391 5.77384e-07 
900.879 5.78485e-07 
901.367 5.79506e-07 
901.855 5.80491e-07 
902.344 5.81517e-07 
902.832 5.82644e-07 
903.32 5.8391e-07 
903.809 5.85372e-07 
904.297 5.87125e-07 
904.785 5.89232e-07 
905.273 5.91693e-07 
905.762 5.94483e-07 
906.25 5.97567e-07 
906.738 6.00944e-07 
907.227 6.04634e-07 
907.715 6.08656e-07 
908.203 6.13049e-07 
908.691 6.17891e-07 
909.18 6.23224e-07 
909.668 6.2905e-07 
910.156 6.3538e-07 
910.645 6.42265e-07 
911.133 6.4978e-07 
911.621 6.57958e-07 
912.109 6.66709e-07 
912.598 6.75895e-07 
913.086 6.85444e-07 
913.574 6.95323e-07 
914.062 7.05544e-07 
914.551 7.16131e-07 
915.039 7.27035e-07 
915.527 7.38086e-07 
916.016 7.49017e-07 
916.504 7.59551e-07 
916.992 7.69371e-07 
917.48 7.78077e-07 
917.969 7.85346e-07 
918.457 7.90937e-07 
918.945 7.94592e-07 
919.434 7.96109e-07 
919.922 7.9544e-07 
920.41 7.92678e-07 
920.898 7.87954e-07 
921.387 7.81362e-07 
921.875 7.73001e-07 
922.363 7.63061e-07 
922.852 7.51544e-07 
923.34 7.38217e-07 
923.828 7.23124e-07 
924.316 7.0666e-07 
924.805 6.89293e-07 
925.293 6.71457e-07 
925.781 6.5381e-07 
926.27 6.37424e-07 
926.758 6.23231e-07 
927.246 6.11448e-07 
927.734 6.01341e-07 
928.223 5.91379e-07 
928.711 5.80259e-07 
929.199 5.67809e-07 
929.688 5.54974e-07 
930.176 5.42402e-07 
930.664 5.29476e-07 
931.152 5.1521e-07 
931.641 4.99677e-07 
932.129 4.83757e-07 
932.617 4.67401e-07 
933.105 4.50915e-07 
933.594 4.36686e-07 
934.082 4.27494e-07 
934.57 4.24336e-07 
935.059 4.26292e-07 
935.547 4.32108e-07 
936.035 4.41227e-07 
936.523 4.53697e-07 
937.012 4.70007e-07 
937.5 4.91109e-07 
937.988 5.18531e-07 
938.477 5.54642e-07 
938.965 6.03171e-07 
939.453 6.70174e-07 
939.941 7.65955e-07 
940.43 9.09082e-07 
940.918 1.13559e-06 
941.406 1.52186e-06 
941.895 2.24748e-06 
942.383 3.76924e-06 
942.871 6.99302e-06 
943.359 1.04268e-05 
943.848 9.23757e-06 
944.336 5.37774e-06 
944.824 2.98569e-06 
945.312 1.88135e-06 
945.801 1.33058e-06 
946.289 1.0245e-06 
946.777 8.38752e-07 
947.266 7.1814e-07 
947.754 6.35597e-07 
948.242 5.76712e-07 
948.73 5.33272e-07 
949.219 5.00329e-07 
949.707 4.74765e-07 
950.195 4.54536e-07 
950.684 4.38259e-07 
951.172 4.24972e-07 
951.66 4.13987e-07 
952.148 4.04803e-07 
952.637 3.97051e-07 
953.125 3.90448e-07 
953.613 3.84779e-07 
954.102 3.79879e-07 
954.59 3.75615e-07 
955.078 3.71884e-07 
955.566 3.68601e-07 
956.055 3.65699e-07 
956.543 3.63122e-07 
957.031 3.60825e-07 
957.52 3.58769e-07 
958.008 3.56923e-07 
958.496 3.5526e-07 
958.984 3.53757e-07 
959.473 3.52396e-07 
959.961 3.51161e-07 
960.449 3.50036e-07 
960.938 3.4901e-07 
961.426 3.48073e-07 
961.914 3.47214e-07 
962.402 3.46427e-07 
962.891 3.45705e-07 
963.379 3.4504e-07 
963.867 3.44428e-07 
964.355 3.43864e-07 
964.844 3.43344e-07 
965.332 3.42863e-07 
965.82 3.42419e-07 
966.309 3.42008e-07 
966.797 3.41627e-07 
967.285 3.41275e-07 
967.773 3.40949e-07 
968.262 3.40647e-07 
968.75 3.40367e-07 
969.238 3.40107e-07 
