#energy geo_1 
500 3.12394e-07 
500.488 3.12439e-07 
500.977 3.12483e-07 
501.465 3.12528e-07 
501.953 3.12573e-07 
502.441 3.12618e-07 
502.93 3.12663e-07 
503.418 3.12708e-07 
503.906 3.12753e-07 
504.395 3.12798e-07 
504.883 3.12844e-07 
505.371 3.12889e-07 
505.859 3.12934e-07 
506.348 3.1298e-07 
506.836 3.13025e-07 
507.324 3.13071e-07 
507.812 3.13117e-07 
508.301 3.13162e-07 
508.789 3.13208e-07 
509.277 3.13254e-07 
509.766 3.133e-07 
510.254 3.13346e-07 
510.742 3.13392e-07 
511.23 3.13438e-07 
511.719 3.13484e-07 
512.207 3.1353e-07 
512.695 3.13576e-07 
513.184 3.13622e-07 
513.672 3.13668e-07 
514.16 3.13714e-07 
514.648 3.1376e-07 
515.137 3.13806e-07 
515.625 3.13853e-07 
516.113 3.13899e-07 
516.602 3.13945e-07 
517.09 3.13991e-07 
517.578 3.14037e-07 
518.066 3.14083e-07 
518.555 3.14129e-07 
519.043 3.14175e-07 
519.531 3.14222e-07 
520.02 3.14268e-07 
520.508 3.14314e-07 
520.996 3.1436e-07 
521.484 3.14406e-07 
521.973 3.14452e-07 
522.461 3.14498e-07 
522.949 3.14545e-07 
523.438 3.14591e-07 
523.926 3.14637e-07 
524.414 3.14683e-07 
524.902 3.14729e-07 
525.391 3.14776e-07 
525.879 3.14822e-07 
526.367 3.14868e-07 
526.855 3.14915e-07 
527.344 3.14961e-07 
527.832 3.15007e-07 
528.32 3.15054e-07 
528.809 3.15101e-07 
529.297 3.15147e-07 
529.785 3.15194e-07 
530.273 3.1524e-07 
530.762 3.15287e-07 
531.25 3.15334e-07 
531.738 3.15381e-07 
532.227 3.15428e-07 
532.715 3.15474e-07 
533.203 3.15522e-07 
533.691 3.15569e-07 
534.18 3.15616e-07 
534.668 3.15663e-07 
535.156 3.1571e-07 
535.645 3.15758e-07 
536.133 3.15805e-07 
536.621 3.15852e-07 
537.109 3.159e-07 
537.598 3.15947e-07 
538.086 3.15995e-07 
538.574 3.16043e-07 
539.062 3.1609e-07 
539.551 3.16138e-07 
540.039 3.16186e-07 
540.527 3.16234e-07 
541.016 3.16282e-07 
541.504 3.16329e-07 
541.992 3.16377e-07 
542.48 3.16425e-07 
542.969 3.16473e-07 
543.457 3.16521e-07 
543.945 3.16569e-07 
544.434 3.16617e-07 
544.922 3.16665e-07 
545.41 3.16714e-07 
545.898 3.16762e-07 
546.387 3.1681e-07 
546.875 3.16858e-07 
547.363 3.16906e-07 
547.852 3.16954e-07 
548.34 3.17002e-07 
548.828 3.1705e-07 
549.316 3.17099e-07 
549.805 3.17147e-07 
550.293 3.17195e-07 
550.781 3.17243e-07 
551.27 3.17292e-07 
551.758 3.1734e-07 
552.246 3.17388e-07 
552.734 3.17436e-07 
553.223 3.17485e-07 
553.711 3.17533e-07 
554.199 3.17582e-07 
554.688 3.1763e-07 
555.176 3.17678e-07 
555.664 3.17727e-07 
556.152 3.17775e-07 
556.641 3.17824e-07 
557.129 3.17872e-07 
557.617 3.17921e-07 
558.105 3.1797e-07 
558.594 3.18019e-07 
559.082 3.18067e-07 
559.57 3.18116e-07 
560.059 3.18165e-07 
560.547 3.18214e-07 
561.035 3.18263e-07 
561.523 3.18312e-07 
562.012 3.18361e-07 
562.5 3.1841e-07 
562.988 3.18459e-07 
563.477 3.18508e-07 
563.965 3.18557e-07 
564.453 3.18606e-07 
564.941 3.18656e-07 
565.43 3.18705e-07 
565.918 3.18755e-07 
566.406 3.18804e-07 
566.895 3.18854e-07 
567.383 3.18903e-07 
567.871 3.18953e-07 
568.359 3.19003e-07 
568.848 3.19052e-07 
569.336 3.19102e-07 
569.824 3.19152e-07 
570.312 3.19202e-07 
570.801 3.19252e-07 
571.289 3.19302e-07 
571.777 3.19352e-07 
572.266 3.19402e-07 
572.754 3.19452e-07 
573.242 3.19502e-07 
573.73 3.19553e-07 
574.219 3.19603e-07 
574.707 3.19653e-07 
575.195 3.19703e-07 
575.684 3.19753e-07 
576.172 3.19804e-07 
576.66 3.19854e-07 
577.148 3.19905e-07 
577.637 3.19955e-07 
578.125 3.20006e-07 
578.613 3.20056e-07 
579.102 3.20107e-07 
579.59 3.20157e-07 
580.078 3.20208e-07 
580.566 3.20259e-07 
581.055 3.20309e-07 
581.543 3.2036e-07 
582.031 3.20411e-07 
582.52 3.20461e-07 
583.008 3.20512e-07 
583.496 3.20563e-07 
583.984 3.20614e-07 
584.473 3.20664e-07 
584.961 3.20715e-07 
585.449 3.20766e-07 
585.938 3.20817e-07 
586.426 3.20868e-07 
586.914 3.20919e-07 
587.402 3.2097e-07 
587.891 3.21021e-07 
588.379 3.21072e-07 
588.867 3.21124e-07 
589.355 3.21175e-07 
589.844 3.21226e-07 
590.332 3.21277e-07 
590.82 3.21329e-07 
591.309 3.2138e-07 
591.797 3.21431e-07 
592.285 3.21483e-07 
592.773 3.21534e-07 
593.262 3.21586e-07 
593.75 3.21638e-07 
594.238 3.21689e-07 
594.727 3.21741e-07 
595.215 3.21793e-07 
595.703 3.21844e-07 
596.191 3.21896e-07 
596.68 3.21948e-07 
597.168 3.22e-07 
597.656 3.22052e-07 
598.145 3.22104e-07 
598.633 3.22156e-07 
599.121 3.22208e-07 
599.609 3.2226e-07 
600.098 3.22313e-07 
600.586 3.22365e-07 
601.074 3.22417e-07 
601.562 3.2247e-07 
602.051 3.22522e-07 
602.539 3.22575e-07 
603.027 3.22627e-07 
603.516 3.2268e-07 
604.004 3.22732e-07 
604.492 3.22785e-07 
604.98 3.22838e-07 
605.469 3.2289e-07 
605.957 3.22943e-07 
606.445 3.22996e-07 
606.934 3.23049e-07 
607.422 3.23102e-07 
607.91 3.23155e-07 
608.398 3.23208e-07 
608.887 3.23261e-07 
609.375 3.23314e-07 
609.863 3.23367e-07 
610.352 3.23421e-07 
610.84 3.23474e-07 
611.328 3.23527e-07 
611.816 3.23581e-07 
612.305 3.23634e-07 
612.793 3.23687e-07 
613.281 3.23741e-07 
613.77 3.23794e-07 
614.258 3.23848e-07 
614.746 3.23901e-07 
615.234 3.23955e-07 
615.723 3.24009e-07 
616.211 3.24062e-07 
616.699 3.24116e-07 
617.188 3.2417e-07 
617.676 3.24224e-07 
618.164 3.24277e-07 
618.652 3.24331e-07 
619.141 3.24385e-07 
619.629 3.24439e-07 
620.117 3.24493e-07 
620.605 3.24547e-07 
621.094 3.24601e-07 
621.582 3.24655e-07 
622.07 3.2471e-07 
622.559 3.24764e-07 
623.047 3.24818e-07 
623.535 3.24872e-07 
624.023 3.24927e-07 
624.512 3.24981e-07 
625 3.25036e-07 
625.488 3.2509e-07 
625.977 3.25144e-07 
626.465 3.25199e-07 
626.953 3.25253e-07 
627.441 3.25308e-07 
627.93 3.25363e-07 
628.418 3.25418e-07 
628.906 3.25472e-07 
629.395 3.25527e-07 
629.883 3.25582e-07 
630.371 3.25637e-07 
630.859 3.25692e-07 
631.348 3.25747e-07 
631.836 3.25802e-07 
632.324 3.25857e-07 
632.812 3.25912e-07 
633.301 3.25968e-07 
633.789 3.26023e-07 
634.277 3.26079e-07 
634.766 3.26134e-07 
635.254 3.26189e-07 
635.742 3.26245e-07 
636.23 3.263e-07 
636.719 3.26356e-07 
637.207 3.26412e-07 
637.695 3.26467e-07 
638.184 3.26523e-07 
638.672 3.26579e-07 
639.16 3.26635e-07 
639.648 3.26691e-07 
640.137 3.26747e-07 
640.625 3.26803e-07 
641.113 3.26859e-07 
641.602 3.26916e-07 
642.09 3.26972e-07 
642.578 3.27028e-07 
643.066 3.27084e-07 
643.555 3.27141e-07 
644.043 3.27197e-07 
644.531 3.27254e-07 
645.02 3.2731e-07 
645.508 3.27367e-07 
645.996 3.27423e-07 
646.484 3.2748e-07 
646.973 3.27537e-07 
647.461 3.27594e-07 
647.949 3.2765e-07 
648.438 3.27707e-07 
648.926 3.27764e-07 
649.414 3.27821e-07 
649.902 3.27878e-07 
650.391 3.27935e-07 
650.879 3.27993e-07 
651.367 3.2805e-07 
651.855 3.28107e-07 
652.344 3.28164e-07 
652.832 3.28221e-07 
653.32 3.28279e-07 
653.809 3.28336e-07 
654.297 3.28393e-07 
654.785 3.28451e-07 
655.273 3.28508e-07 
655.762 3.28566e-07 
656.25 3.28624e-07 
656.738 3.28681e-07 
657.227 3.28739e-07 
657.715 3.28797e-07 
658.203 3.28854e-07 
658.691 3.28912e-07 
659.18 3.2897e-07 
659.668 3.29028e-07 
660.156 3.29086e-07 
660.645 3.29144e-07 
661.133 3.29202e-07 
661.621 3.2926e-07 
662.109 3.29319e-07 
662.598 3.29377e-07 
663.086 3.29435e-07 
663.574 3.29493e-07 
664.062 3.29552e-07 
664.551 3.2961e-07 
665.039 3.29669e-07 
665.527 3.29727e-07 
666.016 3.29786e-07 
666.504 3.29845e-07 
666.992 3.29904e-07 
667.48 3.29962e-07 
667.969 3.30021e-07 
668.457 3.3008e-07 
668.945 3.30139e-07 
669.434 3.30198e-07 
669.922 3.30258e-07 
670.41 3.30317e-07 
670.898 3.30376e-07 
671.387 3.30435e-07 
671.875 3.30495e-07 
672.363 3.30554e-07 
672.852 3.30614e-07 
673.34 3.30673e-07 
673.828 3.30733e-07 
674.316 3.30793e-07 
674.805 3.30852e-07 
675.293 3.30912e-07 
675.781 3.30972e-07 
676.27 3.31032e-07 
676.758 3.31092e-07 
677.246 3.31152e-07 
677.734 3.31212e-07 
678.223 3.31272e-07 
678.711 3.31333e-07 
679.199 3.31393e-07 
679.688 3.31453e-07 
680.176 3.31514e-07 
680.664 3.31574e-07 
681.152 3.31635e-07 
681.641 3.31695e-07 
682.129 3.31756e-07 
682.617 3.31817e-07 
683.105 3.31877e-07 
683.594 3.31938e-07 
684.082 3.31999e-07 
684.57 3.3206e-07 
685.059 3.32121e-07 
685.547 3.32181e-07 
686.035 3.32242e-07 
686.523 3.32304e-07 
687.012 3.32365e-07 
687.5 3.32426e-07 
687.988 3.32487e-07 
688.477 3.32548e-07 
688.965 3.3261e-07 
689.453 3.32671e-07 
689.941 3.32733e-07 
690.43 3.32794e-07 
690.918 3.32856e-07 
691.406 3.32917e-07 
691.895 3.32979e-07 
692.383 3.3304e-07 
692.871 3.33102e-07 
693.359 3.33164e-07 
693.848 3.33226e-07 
694.336 3.33288e-07 
694.824 3.3335e-07 
695.312 3.33412e-07 
695.801 3.33474e-07 
696.289 3.33536e-07 
696.777 3.33598e-07 
697.266 3.33661e-07 
697.754 3.33723e-07 
698.242 3.33786e-07 
698.73 3.33848e-07 
699.219 3.33911e-07 
699.707 3.33973e-07 
700.195 3.34036e-07 
700.684 3.34099e-07 
701.172 3.34162e-07 
701.66 3.34224e-07 
702.148 3.34287e-07 
702.637 3.34351e-07 
703.125 3.34414e-07 
703.613 3.34477e-07 
704.102 3.3454e-07 
704.59 3.34603e-07 
705.078 3.34667e-07 
705.566 3.3473e-07 
706.055 3.34794e-07 
706.543 3.34858e-07 
707.031 3.34921e-07 
707.52 3.34985e-07 
708.008 3.35049e-07 
708.496 3.35113e-07 
708.984 3.35177e-07 
709.473 3.35241e-07 
709.961 3.35305e-07 
710.449 3.35369e-07 
710.938 3.35433e-07 
711.426 3.35498e-07 
711.914 3.35562e-07 
712.402 3.35627e-07 
712.891 3.35691e-07 
713.379 3.35756e-07 
713.867 3.35821e-07 
714.355 3.35885e-07 
714.844 3.3595e-07 
715.332 3.36015e-07 
715.82 3.3608e-07 
716.309 3.36145e-07 
716.797 3.3621e-07 
717.285 3.36275e-07 
717.773 3.3634e-07 
718.262 3.36406e-07 
718.75 3.36471e-07 
719.238 3.36536e-07 
719.727 3.36602e-07 
720.215 3.36667e-07 
720.703 3.36733e-07 
721.191 3.36799e-07 
721.68 3.36864e-07 
722.168 3.3693e-07 
722.656 3.36996e-07 
723.145 3.37062e-07 
723.633 3.37128e-07 
724.121 3.37194e-07 
724.609 3.3726e-07 
725.098 3.37326e-07 
725.586 3.37393e-07 
726.074 3.37459e-07 
726.562 3.37525e-07 
727.051 3.37592e-07 
727.539 3.37658e-07 
728.027 3.37725e-07 
728.516 3.37791e-07 
729.004 3.37858e-07 
729.492 3.37925e-07 
729.98 3.37992e-07 
730.469 3.38059e-07 
730.957 3.38126e-07 
731.445 3.38193e-07 
731.934 3.3826e-07 
732.422 3.38328e-07 
732.91 3.38395e-07 
733.398 3.38462e-07 
733.887 3.3853e-07 
734.375 3.38598e-07 
734.863 3.38665e-07 
735.352 3.38733e-07 
735.84 3.38801e-07 
736.328 3.38869e-07 
736.816 3.38937e-07 
737.305 3.39005e-07 
737.793 3.39073e-07 
738.281 3.39141e-07 
738.77 3.3921e-07 
739.258 3.39278e-07 
739.746 3.39346e-07 
740.234 3.39415e-07 
740.723 3.39484e-07 
741.211 3.39552e-07 
741.699 3.39621e-07 
742.188 3.3969e-07 
742.676 3.39759e-07 
743.164 3.39828e-07 
743.652 3.39897e-07 
744.141 3.39966e-07 
744.629 3.40035e-07 
745.117 3.40105e-07 
745.605 3.40174e-07 
746.094 3.40244e-07 
746.582 3.40313e-07 
747.07 3.40383e-07 
747.559 3.40453e-07 
748.047 3.40522e-07 
748.535 3.40592e-07 
749.023 3.40662e-07 
749.512 3.40732e-07 
750 3.40802e-07 
750.488 3.40872e-07 
750.977 3.40942e-07 
751.465 3.41013e-07 
751.953 3.41083e-07 
752.441 3.41153e-07 
752.93 3.41224e-07 
753.418 3.41295e-07 
753.906 3.41365e-07 
754.395 3.41436e-07 
754.883 3.41507e-07 
755.371 3.41578e-07 
755.859 3.41648e-07 
756.348 3.4172e-07 
756.836 3.41791e-07 
757.324 3.41862e-07 
757.812 3.41933e-07 
758.301 3.42004e-07 
758.789 3.42076e-07 
759.277 3.42147e-07 
759.766 3.42219e-07 
760.254 3.4229e-07 
760.742 3.42362e-07 
761.23 3.42434e-07 
761.719 3.42506e-07 
762.207 3.42578e-07 
762.695 3.4265e-07 
763.184 3.42722e-07 
763.672 3.42795e-07 
764.16 3.42867e-07 
764.648 3.42939e-07 
765.137 3.43012e-07 
765.625 3.43085e-07 
766.113 3.43157e-07 
766.602 3.4323e-07 
767.09 3.43303e-07 
767.578 3.43376e-07 
768.066 3.43449e-07 
768.555 3.43523e-07 
769.043 3.43596e-07 
769.531 3.43669e-07 
770.02 3.43743e-07 
770.508 3.43816e-07 
770.996 3.4389e-07 
771.484 3.43964e-07 
771.973 3.44038e-07 
772.461 3.44112e-07 
772.949 3.44186e-07 
773.438 3.4426e-07 
773.926 3.44334e-07 
774.414 3.44409e-07 
774.902 3.44483e-07 
775.391 3.44558e-07 
775.879 3.44633e-07 
776.367 3.44707e-07 
776.855 3.44782e-07 
777.344 3.44857e-07 
777.832 3.44932e-07 
778.32 3.45007e-07 
778.809 3.45083e-07 
779.297 3.45158e-07 
779.785 3.45234e-07 
780.273 3.4531e-07 
780.762 3.45385e-07 
781.25 3.45461e-07 
781.738 3.45537e-07 
782.227 3.45613e-07 
782.715 3.45689e-07 
783.203 3.45765e-07 
783.691 3.45841e-07 
784.18 3.45918e-07 
784.668 3.45994e-07 
785.156 3.46071e-07 
785.645 3.46148e-07 
786.133 3.46224e-07 
786.621 3.46301e-07 
787.109 3.46378e-07 
787.598 3.46456e-07 
788.086 3.46533e-07 
788.574 3.4661e-07 
789.062 3.46688e-07 
789.551 3.46765e-07 
790.039 3.46843e-07 
790.527 3.46921e-07 
791.016 3.46998e-07 
791.504 3.47076e-07 
791.992 3.47154e-07 
792.48 3.47232e-07 
792.969 3.47311e-07 
793.457 3.47389e-07 
793.945 3.47467e-07 
794.434 3.47546e-07 
794.922 3.47624e-07 
795.41 3.47703e-07 
795.898 3.47782e-07 
796.387 3.47861e-07 
796.875 3.4794e-07 
797.363 3.48019e-07 
797.852 3.48098e-07 
798.34 3.48177e-07 
798.828 3.48257e-07 
799.316 3.48337e-07 
799.805 3.48416e-07 
800.293 3.48496e-07 
800.781 3.48575e-07 
801.27 3.48655e-07 
801.758 3.48735e-07 
802.246 3.48815e-07 
802.734 3.48896e-07 
803.223 3.48976e-07 
803.711 3.49056e-07 
804.199 3.49137e-07 
804.688 3.49217e-07 
805.176 3.49298e-07 
805.664 3.49379e-07 
806.152 3.4946e-07 
806.641 3.49541e-07 
807.129 3.49622e-07 
807.617 3.49703e-07 
808.105 3.49785e-07 
808.594 3.49866e-07 
809.082 3.49948e-07 
809.57 3.50029e-07 
810.059 3.50111e-07 
810.547 3.50193e-07 
811.035 3.50275e-07 
811.523 3.50357e-07 
812.012 3.50439e-07 
812.5 3.50521e-07 
812.988 3.50604e-07 
813.477 3.50686e-07 
813.965 3.50769e-07 
814.453 3.50852e-07 
814.941 3.50935e-07 
815.43 3.51018e-07 
815.918 3.51101e-07 
816.406 3.51184e-07 
816.895 3.51267e-07 
817.383 3.51351e-07 
817.871 3.51434e-07 
818.359 3.51518e-07 
818.848 3.51602e-07 
819.336 3.51686e-07 
819.824 3.5177e-07 
820.312 3.51854e-07 
820.801 3.51939e-07 
821.289 3.52023e-07 
821.777 3.52108e-07 
822.266 3.52193e-07 
822.754 3.52277e-07 
823.242 3.52362e-07 
823.73 3.52448e-07 
824.219 3.52533e-07 
824.707 3.52618e-07 
825.195 3.52704e-07 
825.684 3.52789e-07 
826.172 3.52875e-07 
826.66 3.52961e-07 
827.148 3.53047e-07 
827.637 3.53134e-07 
828.125 3.5322e-07 
828.613 3.53306e-07 
829.102 3.53393e-07 
829.59 3.53479e-07 
830.078 3.53566e-07 
830.566 3.53653e-07 
831.055 3.5374e-07 
831.543 3.53828e-07 
832.031 3.53915e-07 
832.52 3.54003e-07 
833.008 3.5409e-07 
833.496 3.54178e-07 
833.984 3.54266e-07 
834.473 3.54354e-07 
834.961 3.54442e-07 
835.449 3.54531e-07 
835.938 3.54619e-07 
836.426 3.54708e-07 
836.914 3.54797e-07 
837.402 3.54886e-07 
837.891 3.54975e-07 
838.379 3.55064e-07 
838.867 3.55154e-07 
839.355 3.55243e-07 
839.844 3.55333e-07 
840.332 3.55423e-07 
840.82 3.55513e-07 
841.309 3.55603e-07 
841.797 3.55694e-07 
842.285 3.55784e-07 
842.773 3.55875e-07 
843.262 3.55966e-07 
843.75 3.56057e-07 
844.238 3.56148e-07 
844.727 3.5624e-07 
845.215 3.56331e-07 
845.703 3.56423e-07 
846.191 3.56515e-07 
846.68 3.56606e-07 
847.168 3.56699e-07 
847.656 3.56791e-07 
848.145 3.56883e-07 
848.633 3.56976e-07 
849.121 3.57068e-07 
849.609 3.57161e-07 
850.098 3.57254e-07 
850.586 3.57347e-07 
851.074 3.5744e-07 
851.562 3.57534e-07 
852.051 3.57627e-07 
852.539 3.5772e-07 
853.027 3.57814e-07 
853.516 3.57908e-07 
854.004 3.58002e-07 
854.492 3.58096e-07 
854.98 3.58189e-07 
855.469 3.58284e-07 
855.957 3.58378e-07 
856.445 3.58472e-07 
856.934 3.58566e-07 
857.422 3.58661e-07 
857.91 3.58756e-07 
858.398 3.5885e-07 
858.887 3.58945e-07 
859.375 3.5904e-07 
859.863 3.59135e-07 
860.352 3.5923e-07 
860.84 3.59325e-07 
861.328 3.5942e-07 
861.816 3.59516e-07 
862.305 3.59611e-07 
862.793 3.59707e-07 
863.281 3.59803e-07 
863.77 3.59899e-07 
864.258 3.59995e-07 
864.746 3.60091e-07 
865.234 3.60188e-07 
865.723 3.60284e-07 
866.211 3.60381e-07 
866.699 3.60478e-07 
867.188 3.60575e-07 
867.676 3.60673e-07 
868.164 3.60771e-07 
868.652 3.60868e-07 
869.141 3.60966e-07 
869.629 3.61065e-07 
870.117 3.61163e-07 
870.605 3.61262e-07 
871.094 3.61361e-07 
871.582 3.6146e-07 
872.07 3.6156e-07 
872.559 3.6166e-07 
873.047 3.6176e-07 
873.535 3.61861e-07 
874.023 3.61961e-07 
874.512 3.62062e-07 
875 3.62163e-07 
875.488 3.62265e-07 
875.977 3.62367e-07 
876.465 3.62469e-07 
876.953 3.62571e-07 
877.441 3.62673e-07 
877.93 3.62776e-07 
878.418 3.62879e-07 
878.906 3.62983e-07 
879.395 3.63086e-07 
879.883 3.6319e-07 
880.371 3.63294e-07 
880.859 3.63398e-07 
881.348 3.63502e-07 
881.836 3.63606e-07 
882.324 3.63711e-07 
882.812 3.63816e-07 
883.301 3.63921e-07 
883.789 3.64026e-07 
884.277 3.64131e-07 
884.766 3.64237e-07 
885.254 3.64343e-07 
885.742 3.64448e-07 
886.23 3.64554e-07 
886.719 3.6466e-07 
887.207 3.64767e-07 
887.695 3.64873e-07 
888.184 3.6498e-07 
888.672 3.65086e-07 
889.16 3.65193e-07 
889.648 3.653e-07 
890.137 3.65408e-07 
890.625 3.65515e-07 
891.113 3.65623e-07 
891.602 3.65731e-07 
892.09 3.65839e-07 
892.578 3.65948e-07 
893.066 3.66056e-07 
893.555 3.66166e-07 
894.043 3.66275e-07 
894.531 3.66385e-07 
895.02 3.66495e-07 
895.508 3.66605e-07 
895.996 3.66716e-07 
896.484 3.66827e-07 
896.973 3.66939e-07 
897.461 3.67051e-07 
897.949 3.67163e-07 
898.438 3.67276e-07 
898.926 3.67389e-07 
899.414 3.67503e-07 
899.902 3.67618e-07 
900.391 3.67732e-07 
900.879 3.67848e-07 
901.367 3.67963e-07 
901.855 3.6808e-07 
902.344 3.68197e-07 
902.832 3.68314e-07 
903.32 3.68432e-07 
903.809 3.6855e-07 
904.297 3.68669e-07 
904.785 3.68788e-07 
905.273 3.68908e-07 
905.762 3.69028e-07 
906.25 3.69148e-07 
906.738 3.6927e-07 
907.227 3.69391e-07 
907.715 3.69513e-07 
908.203 3.69636e-07 
908.691 3.69758e-07 
909.18 3.69881e-07 
909.668 3.70005e-07 
910.156 3.70129e-07 
910.645 3.70253e-07 
911.133 3.70377e-07 
911.621 3.70502e-07 
912.109 3.70627e-07 
912.598 3.70752e-07 
913.086 3.70878e-07 
913.574 3.71003e-07 
914.062 3.7113e-07 
914.551 3.71256e-07 
915.039 3.71382e-07 
915.527 3.71509e-07 
916.016 3.71636e-07 
916.504 3.71763e-07 
916.992 3.7189e-07 
917.48 3.72018e-07 
917.969 3.72146e-07 
918.457 3.72274e-07 
918.945 3.72402e-07 
919.434 3.7253e-07 
919.922 3.72659e-07 
920.41 3.72788e-07 
920.898 3.72917e-07 
921.387 3.73046e-07 
921.875 3.73176e-07 
922.363 3.73306e-07 
922.852 3.73437e-07 
923.34 3.73567e-07 
923.828 3.73698e-07 
924.316 3.7383e-07 
924.805 3.73961e-07 
925.293 3.74094e-07 
925.781 3.74226e-07 
926.27 3.74359e-07 
926.758 3.74492e-07 
927.246 3.74626e-07 
927.734 3.7476e-07 
928.223 3.74894e-07 
928.711 3.75029e-07 
929.199 3.75164e-07 
929.688 3.753e-07 
930.176 3.75436e-07 
930.664 3.75572e-07 
931.152 3.75709e-07 
931.641 3.75846e-07 
932.129 3.75984e-07 
932.617 3.76122e-07 
933.105 3.7626e-07 
933.594 3.76399e-07 
934.082 3.76538e-07 
934.57 3.76677e-07 
935.059 3.76816e-07 
935.547 3.76956e-07 
936.035 3.77096e-07 
936.523 3.77236e-07 
937.012 3.77377e-07 
937.5 3.77518e-07 
937.988 3.77659e-07 
938.477 3.778e-07 
938.965 3.77942e-07 
939.453 3.78084e-07 
939.941 3.78226e-07 
940.43 3.78368e-07 
940.918 3.78511e-07 
941.406 3.78654e-07 
941.895 3.78797e-07 
942.383 3.78941e-07 
942.871 3.79084e-07 
943.359 3.79228e-07 
943.848 3.79373e-07 
944.336 3.79518e-07 
944.824 3.79663e-07 
945.312 3.79808e-07 
945.801 3.79954e-07 
946.289 3.801e-07 
946.777 3.80247e-07 
947.266 3.80395e-07 
947.754 3.80542e-07 
948.242 3.8069e-07 
948.73 3.80839e-07 
949.219 3.80988e-07 
949.707 3.81137e-07 
950.195 3.81287e-07 
950.684 3.81438e-07 
951.172 3.81588e-07 
951.66 3.8174e-07 
952.148 3.81892e-07 
952.637 3.82045e-07 
953.125 3.82198e-07 
953.613 3.82351e-07 
954.102 3.82505e-07 
954.59 3.8266e-07 
955.078 3.82815e-07 
955.566 3.8297e-07 
956.055 3.83126e-07 
956.543 3.83283e-07 
957.031 3.8344e-07 
957.52 3.83597e-07 
958.008 3.83755e-07 
958.496 3.83913e-07 
958.984 3.84071e-07 
959.473 3.8423e-07 
959.961 3.84389e-07 
960.449 3.84549e-07 
960.938 3.84709e-07 
961.426 3.8487e-07 
961.914 3.8503e-07 
962.402 3.85192e-07 
962.891 3.85353e-07 
963.379 3.85515e-07 
963.867 3.85677e-07 
964.355 3.8584e-07 
964.844 3.86003e-07 
965.332 3.86166e-07 
965.82 3.8633e-07 
966.309 3.86494e-07 
966.797 3.86659e-07 
967.285 3.86824e-07 
967.773 3.86989e-07 
968.262 3.87155e-07 
968.75 3.87322e-07 
969.238 3.87489e-07 
